1.0,214.0,-0.135,-0.155,-0.155,-0.16,-0.145,-0.14,-0.145,-0.15,-0.165,-0.155,-0.15,-0.145,-0.16,-0.17,-0.16,-0.145,-0.13,-0.135,-0.155,-0.16,-0.15,-0.14,-0.13,-0.13,-0.16,-0.16,-0.175,-0.16,-0.15,-0.14,-0.14,-0.165,-0.18,-0.19,-0.17,-0.155,-0.16,-0.175,-0.21,-0.19,-0.18,-0.16,-0.17,-0.185,-0.18,-0.165,-0.165,-0.155,-0.185,-0.19,-0.19,-0.175,-0.165,-0.165,-0.185,-0.195,-0.195,-0.165,-0.145,-0.145,-0.15,-0.185,-0.195,-0.185,-0.18,-0.17,-0.155,-0.17,-0.18,-0.18,-0.16,-0.145,-0.16,-0.165,-0.18,-0.17,-0.18,-0.16,-0.175,-0.175,-0.165,-0.155,-0.15,-0.13,-0.14,-0.15,-0.13,-0.11,-0.105,-0.09,-0.075,-0.06,-0.05,-0.025,0.01,0.055,0.085,0.1,0.15,0.225,0.335,0.425,0.535,0.58,0.61,0.665,0.74,0.785,0.85,0.89,0.93,0.975,0.99,1.005,0.975,0.93,0.845,0.67,0.325,-0.11,-0.61,-1.01,-1.295,-1.465,-1.6,-1.675,-1.72,-1.71,-1.66,-1.625,-1.575,-1.53,-1.45,-1.38,-1.335,-1.315,-1.28,-1.23,-1.185,-1.165,-1.135,-1.095,-1.05,-1.02,-1.03,-1.03,-1.035,-1.025,-0.98,-0.935,-0.87,-0.81,-0.735,-0.64,-0.535,-0.46,-0.36,-0.305,-0.265,-0.23,-0.195,-0.155,-0.14,-0.115,-0.105,-0.09,-0.06,-0.05,-0.05,-0.025,-0.02,-0.005,0.03,0.055,0.07,0.075,0.075,0.085,0.105,0.11,0.135,0.165,0.19,0.22,0.245,0.27,0.29,0.31,0.34,0.38,0.415,0.44,0.475,0.48,0.515,0.535,0.575,0.6,0.63,0.65,0.675,0.695,0.75,0.785,0.795,0.805,0.81,0.84,0.875,0.89,0.885,0.87,0.855,0.855,0.88,0.89,0.87,0.835,0.8,0.795,0.795,0.765,0.745,0.7,0.655,0.63,0.625,0.605,0.565,0.515,0.465,0.43,0.4,0.365,0.31,0.265,0.22,0.18,0.155,0.13,0.105,0.075,0.03,-0.01,0.01,-0.01,-0.02,-0.04,-0.06,-0.065,-0.065,-0.075,-0.085,-0.105,-0.125,-0.105,-0.095,-0.095,-0.12,-0.13,-0.13,-0.135,-0.105,-0.105,-0.13,-0.145,-0.165,-0.165,-0.135,-0.14,-0.14,-0.16,-0.17,-0.175,-0.16,-0.14,-0.165,-0.16,-0.175,-0.18,-0.155,-0.145,-0.14,-0.16,-0.18,-0.19,-0.18,-0.18,-0.18,-0.17,-0.17,-0.165,-0.175,-0.185,-0.18,-0.19,-0.185,-0.17,-0.16,-0.17
1.0,214.0,-0.38,-0.39,-0.39,-0.38,-0.38,-0.405,-0.405,-0.41,-0.415,-0.405,-0.42,-0.435,-0.445,-0.455,-0.43,-0.41,-0.41,-0.435,-0.465,-0.465,-0.455,-0.445,-0.46,-0.48,-0.495,-0.51,-0.495,-0.5,-0.49,-0.52,-0.53,-0.52,-0.53,-0.53,-0.555,-0.565,-0.59,-0.585,-0.57,-0.57,-0.59,-0.62,-0.64,-0.645,-0.625,-0.615,-0.62,-0.65,-0.665,-0.66,-0.645,-0.64,-0.645,-0.635,-0.625,-0.605,-0.59,-0.58,-0.575,-0.575,-0.535,-0.515,-0.465,-0.44,-0.415,-0.405,-0.395,-0.375,-0.335,-0.29,-0.275,-0.285,-0.265,-0.25,-0.22,-0.205,-0.19,-0.19,-0.19,-0.175,-0.175,-0.15,-0.15,-0.14,-0.155,-0.135,-0.13,-0.12,-0.13,-0.145,-0.135,-0.13,-0.105,-0.085,-0.075,-0.075,-0.055,-0.02,0.05,0.14,0.22,0.31,0.395,0.5,0.63,0.745,0.865,0.955,1.04,1.115,1.2,1.25,1.295,1.295,1.245,1.14,0.93,0.62,0.24,-0.12,-0.435,-0.695,-0.89,-1.065,-1.18,-1.31,-1.4,-1.46,-1.53,-1.59,-1.675,-1.735,-1.795,-1.84,-1.855,-1.89,-1.905,-1.935,-1.96,-1.96,-1.92,-1.855,-1.785,-1.67,-1.51,-1.355,-1.21,-1.105,-1.035,-0.99,-0.93,-0.885,-0.84,-0.795,-0.765,-0.735,-0.75,-0.72,-0.685,-0.6,-0.545,-0.51,-0.47,-0.42,-0.35,-0.31,-0.27,-0.23,-0.2,-0.165,-0.105,-0.06,-0.045,-0.055,-0.05,-0.005,0.035,0.075,0.085,0.085,0.095,0.115,0.135,0.185,0.205,0.22,0.24,0.25,0.285,0.335,0.325,0.35,0.345,0.39,0.43,0.49,0.5,0.51,0.515,0.555,0.6,0.64,0.665,0.68,0.7,0.72,0.745,0.78,0.81,0.83,0.865,0.895,0.925,0.935,0.955,0.95,0.945,0.99,1.02,1.05,1.06,1.075,1.07,1.085,1.1,1.135,1.15,1.14,1.135,1.135,1.14,1.15,1.125,1.13,1.115,1.12,1.115,1.115,1.095,1.06,1.025,1.0,1.005,0.98,0.965,0.91,0.875,0.845,0.83,0.805,0.765,0.725,0.69,0.66,0.635,0.595,0.56,0.535,0.495,0.475,0.44,0.425,0.385,0.335,0.285,0.25,0.235,0.215,0.19,0.145,0.105,0.1,0.075,0.055,0.04,0.015,0.0,0.005,0.015,0.0,-0.02,-0.05,-0.07,-0.085,-0.06,-0.05,-0.05,-0.075,-0.11,-0.12,-0.1,-0.1,-0.11,-0.125,-0.145,-0.13,-0.125,-0.11,-0.135,-0.145
1.0,214.0,-0.65,-0.635,-0.645,-0.655,-0.68,-0.69,-0.68,-0.68,-0.68,-0.675,-0.685,-0.68,-0.685,-0.665,-0.66,-0.655,-0.645,-0.635,-0.605,-0.58,-0.565,-0.555,-0.56,-0.53,-0.485,-0.435,-0.42,-0.42,-0.42,-0.37,-0.34,-0.31,-0.3,-0.295,-0.31,-0.305,-0.285,-0.26,-0.245,-0.255,-0.265,-0.27,-0.275,-0.235,-0.24,-0.25,-0.265,-0.265,-0.26,-0.24,-0.245,-0.255,-0.27,-0.26,-0.255,-0.25,-0.265,-0.27,-0.295,-0.285,-0.275,-0.275,-0.27,-0.28,-0.3,-0.29,-0.285,-0.255,-0.265,-0.295,-0.305,-0.31,-0.305,-0.29,-0.285,-0.275,-0.295,-0.295,-0.295,-0.27,-0.265,-0.27,-0.275,-0.275,-0.275,-0.265,-0.26,-0.25,-0.245,-0.24,-0.225,-0.21,-0.215,-0.21,-0.225,-0.21,-0.16,-0.13,-0.115,-0.125,-0.145,-0.125,-0.06,0.005,0.035,0.075,0.1,0.155,0.245,0.31,0.34,0.325,0.3,0.27,0.255,0.21,0.05,-0.265,-0.655,-1.04,-1.3,-1.49,-1.68,-1.84,-1.955,-2.005,-2.025,-2.0,-1.985,-1.98,-1.985,-1.97,-1.915,-1.805,-1.71,-1.65,-1.615,-1.55,-1.445,-1.385,-1.365,-1.355,-1.32,-1.275,-1.195,-1.11,-1.04,-0.97,-0.92,-0.885,-0.855,-0.82,-0.795,-0.755,-0.725,-0.65,-0.55,-0.455,-0.37,-0.285,-0.21,-0.125,-0.03,0.03,0.08,0.105,0.125,0.125,0.175,0.22,0.245,0.25,0.26,0.295,0.325,0.35,0.375,0.4,0.405,0.425,0.46,0.495,0.515,0.51,0.525,0.54,0.565,0.605,0.61,0.615,0.625,0.65,0.685,0.71,0.74,0.75,0.77,0.815,0.835,0.86,0.885,0.905,0.935,0.95,0.99,1.01,1.02,1.03,1.055,1.07,1.1,1.13,1.145,1.12,1.11,1.12,1.12,1.125,1.105,1.095,1.055,1.055,1.05,1.05,1.015,0.965,0.915,0.875,0.84,0.82,0.795,0.735,0.665,0.605,0.585,0.565,0.53,0.445,0.375,0.32,0.29,0.255,0.24,0.2,0.16,0.12,0.09,0.065,0.03,-0.01,-0.06,-0.085,-0.08,-0.1,-0.125,-0.135,-0.16,-0.17,-0.185,-0.195,-0.215,-0.24,-0.24,-0.225,-0.23,-0.22,-0.22,-0.235,-0.25,-0.25,-0.255,-0.24,-0.25,-0.28,-0.295,-0.285,-0.28,-0.26,-0.265,-0.28,-0.28,-0.295,-0.29,-0.27,-0.27,-0.27,-0.285,-0.3,-0.3,-0.295,-0.29,-0.295,-0.32,-0.32,-0.32,-0.305,-0.3,-0.31,-0.33,-0.33
1.0,214.0,-0.965,-0.89,-0.8,-0.755,-0.725,-0.73,-0.705,-0.69,-0.65,-0.565,-0.485,-0.48,-0.535,-0.65,-0.76,-0.795,-0.685,-0.52,-0.345,-0.255,-0.25,-0.295,-0.34,-0.36,-0.325,-0.275,-0.325,-0.37,-0.285,-0.135,-0.05,-0.065,-0.21,-0.36,-0.41,-0.42,-0.47,-0.54,-0.485,-0.295,-0.165,-0.135,-0.25,-0.41,-0.485,-0.44,-0.32,-0.25,-0.21,-0.205,-0.21,-0.195,-0.15,-0.085,-0.08,-0.25,-0.5,-0.62,-0.565,-0.435,-0.27,-0.14,-0.085,-0.055,-0.105,-0.24,-0.41,-0.535,-0.545,-0.525,-0.51,-0.55,-0.61,-0.605,-0.55,-0.495,-0.455,-0.435,-0.36,-0.28,-0.275,-0.295,-0.36,-0.425,-0.475,-0.485,-0.45,-0.405,-0.395,-0.395,-0.425,-0.495,-0.545,-0.52,-0.405,-0.305,-0.35,-0.56,-0.775,-0.85,-0.74,-0.61,-0.495,-0.395,-0.285,-0.115,0.06,0.25,0.425,0.51,0.45,0.305,0.265,0.325,0.36,0.35,0.295,0.225,0.065,-0.2,-0.51,-0.735,-0.875,-0.94,-0.985,-1.02,-1.045,-1.085,-1.08,-1.035,-0.97,-0.9,-0.85,-0.8,-0.74,-0.665,-0.585,-0.515,-0.44,-0.36,-0.24,-0.175,-0.195,-0.32,-0.43,-0.465,-0.44,-0.39,-0.215,-0.05,-0.06,-0.215,-0.395,-0.51,-0.58,-0.68,-0.73,-0.605,-0.29,-0.035,-0.045,-0.27,-0.445,-0.485,-0.46,-0.48,-0.535,-0.55,-0.53,-0.45,-0.25,-0.07,0.04,-0.02,-0.15,-0.325,-0.39,-0.365,-0.34,-0.39,-0.465,-0.505,-0.475,-0.405,-0.305,-0.245,-0.215,-0.225,-0.23,-0.205,-0.19,-0.165,-0.14,-0.125,-0.075,-0.05,-0.065,-0.1,-0.13,-0.145,-0.15,-0.11,-0.025,0.02,0.04,0.055,0.1,0.16,0.23,0.33,0.38,0.3,0.13,-0.025,-0.075,-0.045,0.035,0.065,0.1,0.115,0.11,0.085,0.08,0.085,0.11,0.12,0.08,0.05,0.005,0.0,-0.01,-0.005,-0.005,-0.035,-0.075,-0.12,-0.16,-0.18,-0.195,-0.195,-0.215,-0.23,-0.25,-0.25,-0.25,-0.265,-0.28,-0.31,-0.315,-0.32,-0.32,-0.33,-0.34,-0.35,-0.365,-0.375,-0.38,-0.38,-0.375,-0.39,-0.385,-0.365,-0.345,-0.335,-0.365,-0.37,-0.38,-0.385,-0.345,-0.32,-0.295,-0.275,-0.25,-0.195,-0.145,-0.195,-0.385,-0.565,-0.635,-0.59,-0.505,-0.47,-0.47,-0.485,-0.475,-0.425,-0.4,-0.4,-0.41,-0.43,-0.435,-0.425,-0.41,-0.425,-0.43,-0.445,-0.44,-0.42,-0.43,-0.41
1.0,214.0,-0.53,-0.53,-0.55,-0.555,-0.525,-0.49,-0.51,-0.56,-0.625,-0.65,-0.605,-0.545,-0.52,-0.555,-0.615,-0.64,-0.63,-0.61,-0.59,-0.62,-0.635,-0.63,-0.645,-0.635,-0.605,-0.59,-0.605,-0.635,-0.625,-0.61,-0.595,-0.625,-0.65,-0.65,-0.64,-0.6,-0.565,-0.61,-0.635,-0.61,-0.565,-0.545,-0.515,-0.515,-0.49,-0.46,-0.405,-0.36,-0.335,-0.345,-0.38,-0.41,-0.41,-0.38,-0.33,-0.3,-0.295,-0.305,-0.3,-0.295,-0.275,-0.28,-0.265,-0.265,-0.26,-0.285,-0.29,-0.305,-0.28,-0.3,-0.325,-0.335,-0.33,-0.31,-0.285,-0.29,-0.28,-0.275,-0.275,-0.28,-0.3,-0.325,-0.355,-0.37,-0.345,-0.325,-0.305,-0.32,-0.31,-0.285,-0.29,-0.335,-0.385,-0.415,-0.405,-0.38,-0.38,-0.415,-0.44,-0.425,-0.35,-0.255,-0.125,-0.03,0.06,0.175,0.325,0.49,0.62,0.74,0.85,0.935,0.945,0.925,0.88,0.795,0.7,0.615,0.53,0.365,0.135,-0.135,-0.405,-0.575,-0.74,-0.865,-0.945,-0.99,-0.99,-0.96,-0.895,-0.82,-0.715,-0.645,-0.585,-0.54,-0.5,-0.48,-0.46,-0.435,-0.44,-0.435,-0.425,-0.42,-0.41,-0.415,-0.41,-0.43,-0.425,-0.42,-0.425,-0.455,-0.485,-0.48,-0.46,-0.43,-0.41,-0.39,-0.39,-0.41,-0.415,-0.395,-0.385,-0.375,-0.375,-0.39,-0.37,-0.34,-0.305,-0.32,-0.35,-0.375,-0.355,-0.335,-0.3,-0.31,-0.33,-0.33,-0.31,-0.31,-0.29,-0.29,-0.27,-0.27,-0.27,-0.25,-0.225,-0.205,-0.225,-0.22,-0.18,-0.125,-0.065,-0.055,-0.06,-0.085,-0.085,-0.05,-0.01,0.015,0.035,0.055,0.055,0.07,0.065,0.075,0.075,0.065,0.04,0.02,0.055,0.07,0.035,0.0,-0.015,-0.02,-0.03,-0.05,-0.085,-0.125,-0.13,-0.14,-0.145,-0.17,-0.175,-0.185,-0.185,-0.19,-0.22,-0.255,-0.29,-0.3,-0.27,-0.26,-0.27,-0.305,-0.32,-0.34,-0.34,-0.31,-0.295,-0.3,-0.315,-0.33,-0.325,-0.32,-0.31,-0.32,-0.305,-0.295,-0.29,-0.29,-0.295,-0.335,-0.365,-0.35,-0.33,-0.315,-0.305,-0.315,-0.32,-0.315,-0.3,-0.29,-0.285,-0.33,-0.35,-0.35,-0.335,-0.325,-0.31,-0.335,-0.36,-0.365,-0.375,-0.37,-0.335,-0.345,-0.365,-0.355,-0.35,-0.345,-0.34,-0.375,-0.39,-0.39,-0.38,-0.335,-0.335,-0.34,-0.355,-0.365,-0.355,-0.345,-0.34,-0.37,-0.385,-0.365,-0.345,-0.34
1.0,214.0,-0.58,-0.585,-0.6,-0.625,-0.605,-0.595,-0.605,-0.6,-0.6,-0.615,-0.59,-0.58,-0.58,-0.59,-0.63,-0.65,-0.655,-0.635,-0.63,-0.625,-0.62,-0.615,-0.59,-0.58,-0.58,-0.57,-0.565,-0.54,-0.52,-0.495,-0.475,-0.455,-0.45,-0.43,-0.4,-0.39,-0.42,-0.455,-0.475,-0.46,-0.43,-0.365,-0.365,-0.33,-0.33,-0.325,-0.3,-0.28,-0.275,-0.27,-0.285,-0.285,-0.3,-0.295,-0.305,-0.31,-0.31,-0.29,-0.275,-0.25,-0.27,-0.29,-0.3,-0.31,-0.31,-0.3,-0.295,-0.29,-0.29,-0.295,-0.29,-0.305,-0.31,-0.34,-0.365,-0.35,-0.335,-0.3,-0.305,-0.3,-0.32,-0.32,-0.305,-0.305,-0.32,-0.345,-0.335,-0.32,-0.295,-0.295,-0.35,-0.4,-0.445,-0.465,-0.485,-0.475,-0.45,-0.44,-0.42,-0.375,-0.26,-0.15,-0.07,-0.02,0.05,0.22,0.435,0.63,0.76,0.86,0.91,0.96,0.955,0.915,0.87,0.815,0.745,0.655,0.525,0.34,0.085,-0.205,-0.45,-0.645,-0.785,-0.875,-0.93,-0.96,-0.975,-0.96,-0.915,-0.855,-0.765,-0.695,-0.63,-0.535,-0.48,-0.435,-0.405,-0.4,-0.415,-0.42,-0.42,-0.41,-0.415,-0.43,-0.425,-0.4,-0.36,-0.335,-0.375,-0.405,-0.465,-0.44,-0.41,-0.395,-0.41,-0.425,-0.425,-0.395,-0.365,-0.34,-0.335,-0.335,-0.355,-0.35,-0.335,-0.325,-0.335,-0.345,-0.36,-0.36,-0.325,-0.285,-0.3,-0.33,-0.365,-0.365,-0.335,-0.295,-0.28,-0.3,-0.31,-0.31,-0.3,-0.28,-0.28,-0.28,-0.295,-0.275,-0.26,-0.21,-0.22,-0.23,-0.235,-0.225,-0.185,-0.145,-0.13,-0.15,-0.155,-0.15,-0.115,-0.07,-0.04,-0.055,-0.07,-0.055,-0.02,0.015,0.04,0.035,0.02,0.025,0.04,0.065,0.08,0.07,0.045,0.045,0.045,0.025,0.02,-0.01,-0.04,-0.045,-0.06,-0.05,-0.08,-0.115,-0.125,-0.155,-0.145,-0.14,-0.155,-0.19,-0.22,-0.215,-0.22,-0.215,-0.225,-0.235,-0.24,-0.245,-0.255,-0.25,-0.255,-0.27,-0.275,-0.27,-0.275,-0.275,-0.28,-0.275,-0.28,-0.275,-0.275,-0.26,-0.285,-0.285,-0.285,-0.28,-0.255,-0.235,-0.265,-0.3,-0.31,-0.315,-0.27,-0.26,-0.26,-0.28,-0.315,-0.315,-0.285,-0.285,-0.265,-0.28,-0.295,-0.295,-0.29,-0.285,-0.3,-0.305,-0.3,-0.31,-0.305,-0.29,-0.3,-0.305,-0.305,-0.31,-0.305,-0.295,-0.295,-0.315,-0.32,-0.305,-0.295,-0.28
1.0,214.0,-0.695,-0.625,-0.565,-0.57,-0.6,-0.63,-0.64,-0.615,-0.575,-0.535,-0.475,-0.43,-0.435,-0.465,-0.465,-0.445,-0.39,-0.38,-0.365,-0.375,-0.355,-0.315,-0.31,-0.34,-0.385,-0.385,-0.345,-0.32,-0.345,-0.355,-0.355,-0.325,-0.3,-0.295,-0.32,-0.34,-0.37,-0.415,-0.44,-0.415,-0.34,-0.265,-0.225,-0.215,-0.25,-0.295,-0.33,-0.345,-0.37,-0.39,-0.375,-0.34,-0.285,-0.26,-0.28,-0.335,-0.36,-0.395,-0.41,-0.43,-0.44,-0.405,-0.38,-0.35,-0.355,-0.37,-0.42,-0.415,-0.385,-0.32,-0.275,-0.255,-0.255,-0.33,-0.37,-0.385,-0.365,-0.34,-0.345,-0.33,-0.35,-0.35,-0.33,-0.3,-0.315,-0.33,-0.315,-0.28,-0.265,-0.285,-0.31,-0.315,-0.285,-0.23,-0.165,-0.105,-0.095,-0.06,-0.03,0.0,0.03,0.07,0.085,0.12,0.185,0.245,0.3,0.32,0.345,0.365,0.345,0.345,0.34,0.33,0.295,0.195,0.045,-0.125,-0.32,-0.55,-0.75,-0.96,-1.135,-1.255,-1.345,-1.45,-1.575,-1.66,-1.7,-1.7,-1.715,-1.74,-1.765,-1.765,-1.71,-1.685,-1.69,-1.72,-1.745,-1.73,-1.69,-1.61,-1.575,-1.53,-1.48,-1.445,-1.425,-1.35,-1.29,-1.255,-1.235,-1.23,-1.22,-1.19,-1.16,-1.145,-1.11,-1.035,-0.97,-0.91,-0.83,-0.74,-0.64,-0.565,-0.525,-0.465,-0.37,-0.28,-0.185,-0.11,-0.035,0.025,0.03,0.035,0.005,-0.03,-0.03,-0.015,0.005,0.03,0.06,0.065,0.11,0.16,0.185,0.205,0.205,0.19,0.195,0.24,0.295,0.305,0.295,0.32,0.35,0.385,0.425,0.445,0.435,0.425,0.415,0.415,0.425,0.465,0.505,0.54,0.55,0.545,0.56,0.59,0.635,0.665,0.685,0.715,0.765,0.79,0.81,0.795,0.805,0.825,0.845,0.885,0.9,0.93,0.95,0.96,0.99,1.005,1.01,1.01,1.025,1.035,1.07,1.085,1.085,1.1,1.16,1.25,1.31,1.325,1.295,1.245,1.24,1.265,1.3,1.295,1.285,1.26,1.24,1.225,1.265,1.26,1.255,1.225,1.19,1.18,1.195,1.2,1.175,1.155,1.115,1.09,1.08,1.045,0.985,0.93,0.91,0.89,0.865,0.84,0.8,0.76,0.72,0.685,0.65,0.595,0.555,0.5,0.46,0.455,0.435,0.435,0.41,0.35,0.315,0.27,0.23,0.19,0.155,0.125,0.115,0.115,0.115,0.11,0.09,0.035,-0.01,-0.05,-0.075,-0.07
1.0,214.0,-0.3,-0.305,-0.31,-0.31,-0.315,-0.31,-0.325,-0.345,-0.33,-0.335,-0.32,-0.325,-0.34,-0.365,-0.38,-0.355,-0.345,-0.335,-0.345,-0.36,-0.38,-0.375,-0.36,-0.355,-0.375,-0.39,-0.39,-0.37,-0.365,-0.37,-0.385,-0.405,-0.405,-0.4,-0.405,-0.39,-0.425,-0.44,-0.445,-0.455,-0.43,-0.42,-0.445,-0.475,-0.49,-0.495,-0.495,-0.48,-0.49,-0.495,-0.54,-0.545,-0.52,-0.505,-0.52,-0.53,-0.535,-0.545,-0.52,-0.515,-0.53,-0.525,-0.515,-0.495,-0.47,-0.445,-0.44,-0.435,-0.415,-0.385,-0.34,-0.31,-0.315,-0.295,-0.28,-0.25,-0.21,-0.195,-0.18,-0.185,-0.195,-0.165,-0.135,-0.115,-0.115,-0.125,-0.135,-0.135,-0.11,-0.105,-0.09,-0.1,-0.115,-0.12,-0.11,-0.09,-0.1,-0.095,-0.065,-0.025,0.05,0.13,0.215,0.31,0.43,0.56,0.7,0.81,0.91,1.005,1.075,1.17,1.235,1.275,1.265,1.19,1.005,0.705,0.295,-0.11,-0.48,-0.805,-1.05,-1.215,-1.335,-1.42,-1.525,-1.615,-1.695,-1.745,-1.775,-1.805,-1.835,-1.87,-1.915,-1.93,-1.92,-1.92,-1.91,-1.93,-1.895,-1.8,-1.68,-1.555,-1.4,-1.28,-1.13,-1.005,-0.905,-0.83,-0.795,-0.77,-0.76,-0.72,-0.685,-0.65,-0.635,-0.625,-0.6,-0.535,-0.485,-0.41,-0.365,-0.315,-0.265,-0.215,-0.175,-0.14,-0.125,-0.085,-0.07,-0.02,0.015,0.065,0.085,0.095,0.115,0.145,0.175,0.2,0.225,0.22,0.26,0.3,0.355,0.39,0.41,0.415,0.455,0.465,0.485,0.515,0.54,0.565,0.61,0.645,0.68,0.725,0.75,0.755,0.79,0.835,0.86,0.91,0.93,0.955,0.955,0.995,1.02,1.06,1.055,1.07,1.095,1.13,1.16,1.175,1.195,1.21,1.22,1.235,1.24,1.25,1.24,1.23,1.235,1.24,1.245,1.225,1.21,1.175,1.13,1.135,1.115,1.095,1.055,1.005,0.96,0.91,0.875,0.86,0.82,0.765,0.695,0.66,0.62,0.6,0.565,0.515,0.49,0.46,0.435,0.4,0.345,0.3,0.25,0.22,0.2,0.165,0.135,0.09,0.05,0.02,0.02,0.025,-0.005,-0.025,-0.045,-0.075,-0.065,-0.06,-0.085,-0.085,-0.105,-0.105,-0.095,-0.1,-0.115,-0.13,-0.14,-0.14,-0.13,-0.13,-0.145,-0.16,-0.16,-0.175,-0.135,-0.13,-0.145,-0.18,-0.19,-0.18,-0.175,-0.15,-0.17,-0.185,-0.195,-0.205,-0.195,-0.17
1.0,214.0,-0.325,-0.34,-0.355,-0.38,-0.39,-0.375,-0.36,-0.35,-0.36,-0.375,-0.4,-0.38,-0.375,-0.385,-0.4,-0.42,-0.415,-0.385,-0.38,-0.395,-0.41,-0.435,-0.43,-0.44,-0.415,-0.43,-0.44,-0.475,-0.495,-0.485,-0.465,-0.475,-0.475,-0.505,-0.525,-0.52,-0.49,-0.51,-0.535,-0.54,-0.545,-0.54,-0.54,-0.555,-0.575,-0.59,-0.58,-0.565,-0.55,-0.56,-0.565,-0.575,-0.555,-0.535,-0.51,-0.505,-0.5,-0.495,-0.49,-0.455,-0.435,-0.41,-0.4,-0.375,-0.36,-0.34,-0.31,-0.31,-0.295,-0.285,-0.26,-0.23,-0.18,-0.18,-0.18,-0.17,-0.175,-0.145,-0.12,-0.105,-0.115,-0.135,-0.13,-0.125,-0.115,-0.125,-0.14,-0.135,-0.12,-0.11,-0.095,-0.095,-0.1,-0.11,-0.085,-0.065,-0.005,0.025,0.075,0.155,0.22,0.35,0.46,0.56,0.64,0.72,0.815,0.915,1.02,1.09,1.145,1.195,1.225,1.265,1.22,1.085,0.875,0.61,0.39,0.18,-0.025,-0.235,-0.485,-0.705,-0.885,-1.005,-1.08,-1.145,-1.225,-1.31,-1.39,-1.47,-1.53,-1.59,-1.655,-1.675,-1.685,-1.7,-1.71,-1.755,-1.795,-1.82,-1.81,-1.76,-1.665,-1.55,-1.4,-1.26,-1.145,-1.045,-0.95,-0.895,-0.845,-0.81,-0.76,-0.72,-0.69,-0.66,-0.66,-0.64,-0.63,-0.57,-0.485,-0.45,-0.43,-0.405,-0.355,-0.29,-0.25,-0.21,-0.21,-0.18,-0.16,-0.115,-0.065,-0.025,0.0,0.02,0.04,0.07,0.1,0.11,0.1,0.125,0.145,0.195,0.215,0.245,0.26,0.265,0.285,0.315,0.35,0.375,0.37,0.4,0.42,0.46,0.505,0.515,0.535,0.545,0.545,0.6,0.65,0.655,0.665,0.675,0.725,0.755,0.785,0.805,0.805,0.84,0.86,0.895,0.93,0.94,0.94,0.955,0.98,1.015,1.025,1.035,1.025,1.02,1.025,1.035,1.055,1.05,1.05,1.04,1.04,1.045,1.035,1.01,0.995,0.97,0.95,0.95,0.935,0.91,0.86,0.815,0.795,0.775,0.745,0.695,0.65,0.61,0.57,0.545,0.52,0.505,0.46,0.425,0.37,0.345,0.32,0.295,0.26,0.23,0.19,0.175,0.16,0.13,0.085,0.055,0.04,0.02,0.035,-0.005,-0.015,-0.03,-0.045,-0.045,-0.02,-0.025,-0.05,-0.075,-0.07,-0.075,-0.065,-0.075,-0.09,-0.095,-0.09,-0.095,-0.1,-0.105,-0.115,-0.135,-0.14,-0.13,-0.105,-0.12,-0.14,-0.14,-0.155,-0.135
1.0,214.0,-0.405,-0.42,-0.445,-0.44,-0.425,-0.425,-0.425,-0.46,-0.46,-0.465,-0.445,-0.45,-0.465,-0.47,-0.485,-0.48,-0.465,-0.455,-0.47,-0.5,-0.505,-0.5,-0.47,-0.475,-0.505,-0.53,-0.535,-0.535,-0.54,-0.525,-0.51,-0.535,-0.55,-0.565,-0.55,-0.565,-0.58,-0.6,-0.62,-0.605,-0.6,-0.6,-0.625,-0.645,-0.67,-0.66,-0.66,-0.65,-0.655,-0.685,-0.705,-0.69,-0.69,-0.675,-0.675,-0.695,-0.695,-0.7,-0.67,-0.67,-0.65,-0.645,-0.645,-0.615,-0.59,-0.555,-0.55,-0.555,-0.54,-0.5,-0.475,-0.435,-0.42,-0.425,-0.405,-0.365,-0.33,-0.3,-0.305,-0.31,-0.295,-0.275,-0.265,-0.26,-0.26,-0.26,-0.265,-0.265,-0.255,-0.245,-0.25,-0.245,-0.25,-0.245,-0.23,-0.225,-0.23,-0.21,-0.18,-0.11,-0.02,0.035,0.115,0.17,0.245,0.35,0.465,0.56,0.665,0.75,0.835,0.92,1.01,1.075,1.06,0.935,0.675,0.33,-0.07,-0.435,-0.735,-0.985,-1.175,-1.335,-1.455,-1.56,-1.67,-1.745,-1.84,-1.89,-1.935,-1.975,-2.03,-2.075,-2.085,-2.08,-2.065,-2.085,-2.09,-2.065,-1.985,-1.855,-1.68,-1.52,-1.355,-1.225,-1.12,-1.02,-0.93,-0.875,-0.855,-0.865,-0.85,-0.82,-0.77,-0.725,-0.66,-0.64,-0.59,-0.515,-0.445,-0.375,-0.33,-0.315,-0.285,-0.22,-0.155,-0.1,-0.075,-0.055,-0.05,-0.03,0.005,0.025,0.04,0.05,0.065,0.115,0.17,0.215,0.23,0.25,0.27,0.31,0.335,0.375,0.395,0.395,0.405,0.46,0.49,0.53,0.555,0.575,0.595,0.63,0.685,0.735,0.76,0.775,0.79,0.83,0.865,0.91,0.92,0.915,0.935,0.965,0.99,1.01,1.03,1.035,1.035,1.05,1.06,1.065,1.07,1.065,1.03,1.05,1.035,1.035,1.005,0.96,0.925,0.915,0.885,0.865,0.815,0.765,0.71,0.675,0.665,0.645,0.585,0.535,0.475,0.45,0.425,0.4,0.365,0.31,0.27,0.225,0.175,0.14,0.12,0.07,0.04,0.025,0.0,-0.005,-0.06,-0.085,-0.1,-0.12,-0.11,-0.125,-0.13,-0.155,-0.18,-0.185,-0.185,-0.19,-0.195,-0.215,-0.24,-0.24,-0.235,-0.225,-0.225,-0.245,-0.24,-0.245,-0.24,-0.245,-0.255,-0.265,-0.27,-0.265,-0.255,-0.255,-0.27,-0.285,-0.31,-0.29,-0.26,-0.27,-0.285,-0.31,-0.33,-0.305,-0.295,-0.275,-0.3,-0.325,-0.34,-0.335,-0.32,-0.315
1.0,214.0,-0.29,-0.305,-0.32,-0.355,-0.395,-0.41,-0.44,-0.435,-0.42,-0.42,-0.435,-0.455,-0.465,-0.47,-0.455,-0.46,-0.47,-0.465,-0.475,-0.475,-0.475,-0.475,-0.5,-0.505,-0.49,-0.475,-0.475,-0.495,-0.515,-0.52,-0.51,-0.5,-0.5,-0.515,-0.535,-0.535,-0.54,-0.535,-0.525,-0.525,-0.565,-0.58,-0.585,-0.565,-0.555,-0.58,-0.6,-0.615,-0.625,-0.62,-0.595,-0.61,-0.63,-0.63,-0.625,-0.63,-0.625,-0.635,-0.63,-0.645,-0.64,-0.625,-0.61,-0.61,-0.585,-0.57,-0.55,-0.52,-0.51,-0.49,-0.47,-0.45,-0.43,-0.4,-0.38,-0.375,-0.365,-0.345,-0.315,-0.285,-0.255,-0.25,-0.25,-0.26,-0.24,-0.22,-0.195,-0.205,-0.21,-0.225,-0.23,-0.205,-0.19,-0.18,-0.19,-0.195,-0.18,-0.155,-0.125,-0.065,-0.02,0.06,0.155,0.31,0.47,0.61,0.72,0.815,0.915,0.995,1.07,1.12,1.145,1.15,1.1,0.945,0.685,0.305,-0.12,-0.5,-0.81,-1.045,-1.235,-1.425,-1.635,-1.785,-1.875,-1.93,-1.935,-1.96,-1.985,-2.025,-2.035,-2.035,-2.035,-2.04,-2.05,-2.045,-2.03,-2.01,-1.935,-1.86,-1.775,-1.67,-1.53,-1.37,-1.235,-1.125,-1.05,-0.98,-0.91,-0.85,-0.78,-0.745,-0.725,-0.71,-0.68,-0.625,-0.58,-0.52,-0.475,-0.445,-0.39,-0.31,-0.265,-0.23,-0.215,-0.185,-0.155,-0.125,-0.075,-0.045,-0.015,0.015,0.055,0.105,0.135,0.125,0.135,0.155,0.19,0.23,0.285,0.31,0.305,0.32,0.355,0.405,0.455,0.475,0.5,0.53,0.56,0.61,0.665,0.685,0.695,0.73,0.75,0.8,0.845,0.88,0.89,0.91,0.93,0.955,0.99,0.995,1.015,1.035,1.075,1.115,1.145,1.15,1.15,1.15,1.17,1.18,1.205,1.19,1.19,1.16,1.175,1.18,1.18,1.16,1.13,1.095,1.065,1.055,1.055,1.03,0.98,0.945,0.91,0.88,0.865,0.805,0.75,0.705,0.66,0.625,0.58,0.54,0.475,0.43,0.405,0.385,0.365,0.325,0.27,0.215,0.16,0.145,0.115,0.085,0.055,0.0,-0.035,-0.07,-0.065,-0.095,-0.11,-0.14,-0.15,-0.135,-0.145,-0.175,-0.2,-0.22,-0.22,-0.195,-0.19,-0.215,-0.23,-0.265,-0.27,-0.255,-0.24,-0.245,-0.25,-0.26,-0.26,-0.275,-0.265,-0.27,-0.295,-0.3,-0.3,-0.275,-0.275,-0.28,-0.315,-0.32,-0.315,-0.3,-0.29,-0.31,-0.325,-0.335
1.0,214.0,-0.495,-0.505,-0.53,-0.52,-0.535,-0.55,-0.555,-0.55,-0.54,-0.54,-0.545,-0.56,-0.575,-0.57,-0.555,-0.57,-0.565,-0.585,-0.59,-0.58,-0.585,-0.57,-0.57,-0.59,-0.605,-0.63,-0.63,-0.615,-0.615,-0.625,-0.63,-0.645,-0.645,-0.63,-0.64,-0.66,-0.68,-0.67,-0.665,-0.665,-0.675,-0.715,-0.74,-0.74,-0.715,-0.72,-0.725,-0.755,-0.79,-0.78,-0.77,-0.755,-0.745,-0.755,-0.765,-0.775,-0.775,-0.75,-0.73,-0.735,-0.75,-0.745,-0.73,-0.685,-0.675,-0.665,-0.67,-0.645,-0.605,-0.585,-0.57,-0.57,-0.555,-0.53,-0.48,-0.445,-0.43,-0.43,-0.43,-0.415,-0.385,-0.36,-0.35,-0.365,-0.37,-0.36,-0.34,-0.31,-0.31,-0.305,-0.31,-0.325,-0.31,-0.295,-0.295,-0.32,-0.305,-0.275,-0.23,-0.16,-0.07,0.01,0.125,0.245,0.37,0.505,0.62,0.715,0.795,0.89,0.97,1.065,1.12,1.14,1.085,0.905,0.605,0.225,-0.2,-0.585,-0.915,-1.175,-1.355,-1.485,-1.595,-1.705,-1.825,-1.9,-1.935,-1.955,-1.99,-2.065,-2.14,-2.175,-2.2,-2.22,-2.2,-2.2,-2.2,-2.165,-2.08,-1.985,-1.86,-1.72,-1.555,-1.405,-1.26,-1.165,-1.085,-1.03,-1.015,-0.97,-0.915,-0.885,-0.855,-0.845,-0.82,-0.78,-0.695,-0.615,-0.565,-0.515,-0.485,-0.445,-0.41,-0.34,-0.3,-0.295,-0.245,-0.21,-0.16,-0.125,-0.1,-0.06,-0.055,-0.035,-0.015,0.015,0.025,0.06,0.095,0.125,0.17,0.2,0.21,0.245,0.24,0.26,0.3,0.355,0.38,0.405,0.42,0.435,0.495,0.54,0.58,0.595,0.635,0.66,0.7,0.735,0.735,0.77,0.79,0.825,0.865,0.89,0.915,0.925,0.95,0.97,1.0,1.04,1.045,1.055,1.05,1.075,1.085,1.11,1.105,1.09,1.06,1.065,1.06,1.05,1.015,0.995,0.96,0.92,0.89,0.88,0.855,0.81,0.745,0.725,0.69,0.685,0.64,0.595,0.54,0.49,0.465,0.42,0.365,0.31,0.25,0.21,0.175,0.165,0.11,0.045,0.005,-0.03,-0.045,-0.035,-0.065,-0.085,-0.115,-0.14,-0.155,-0.165,-0.17,-0.19,-0.21,-0.235,-0.23,-0.235,-0.23,-0.24,-0.265,-0.27,-0.27,-0.265,-0.275,-0.285,-0.295,-0.3,-0.28,-0.285,-0.31,-0.31,-0.32,-0.32,-0.31,-0.3,-0.31,-0.335,-0.35,-0.35,-0.345,-0.3,-0.305,-0.345,-0.35,-0.37,-0.355,-0.345,-0.335,-0.365
1.0,214.0,-0.12,-0.17,-0.21,-0.21,-0.215,-0.22,-0.225,-0.24,-0.255,-0.26,-0.24,-0.235,-0.24,-0.255,-0.26,-0.25,-0.245,-0.245,-0.25,-0.26,-0.285,-0.275,-0.26,-0.245,-0.26,-0.28,-0.28,-0.28,-0.275,-0.26,-0.28,-0.275,-0.31,-0.305,-0.295,-0.28,-0.29,-0.29,-0.295,-0.305,-0.295,-0.3,-0.315,-0.325,-0.355,-0.365,-0.355,-0.35,-0.37,-0.4,-0.385,-0.385,-0.38,-0.39,-0.385,-0.4,-0.405,-0.4,-0.385,-0.38,-0.385,-0.39,-0.41,-0.395,-0.385,-0.36,-0.355,-0.345,-0.355,-0.32,-0.27,-0.22,-0.195,-0.205,-0.185,-0.13,-0.09,-0.06,-0.065,-0.05,-0.065,-0.06,-0.07,-0.035,-0.02,-0.025,-0.04,-0.045,-0.025,-0.005,0.0,0.03,0.05,0.08,0.125,0.16,0.215,0.25,0.29,0.345,0.425,0.495,0.565,0.625,0.69,0.76,0.845,0.915,0.96,1.02,1.1,1.17,1.245,1.305,1.345,1.285,1.11,0.74,0.255,-0.23,-0.75,-1.16,-1.44,-1.56,-1.65,-1.725,-1.795,-1.88,-1.94,-1.975,-1.995,-1.975,-2.005,-2.04,-2.055,-2.03,-2.005,-1.965,-1.935,-1.895,-1.83,-1.685,-1.48,-1.245,-1.05,-0.92,-0.825,-0.755,-0.68,-0.605,-0.485,-0.355,-0.25,-0.175,-0.11,-0.065,-0.01,0.04,0.07,0.115,0.155,0.16,0.19,0.17,0.195,0.205,0.23,0.285,0.305,0.31,0.31,0.33,0.35,0.37,0.39,0.395,0.395,0.41,0.45,0.47,0.5,0.5,0.51,0.54,0.565,0.62,0.645,0.675,0.71,0.775,0.815,0.865,0.9,0.935,0.995,1.025,1.07,1.08,1.1,1.11,1.11,1.13,1.175,1.205,1.22,1.22,1.235,1.235,1.275,1.31,1.335,1.33,1.32,1.335,1.345,1.37,1.37,1.32,1.3,1.265,1.21,1.15,1.08,0.99,0.88,0.81,0.74,0.69,0.63,0.575,0.515,0.475,0.435,0.395,0.35,0.31,0.27,0.265,0.25,0.25,0.21,0.185,0.16,0.15,0.14,0.145,0.135,0.105,0.085,0.085,0.08,0.09,0.075,0.06,0.04,0.04,0.035,0.04,0.01,-0.025,-0.025,-0.03,-0.02,-0.025,-0.06,-0.06,-0.075,-0.06,-0.055,-0.05,-0.075,-0.1,-0.11,-0.105,-0.095,-0.075,-0.08,-0.1,-0.125,-0.13,-0.11,-0.09,-0.11,-0.135,-0.145,-0.14,-0.135,-0.115,-0.12,-0.145,-0.15,-0.175,-0.155,-0.15,-0.16,-0.185,-0.195,-0.18,-0.18,-0.185
1.0,214.0,-0.395,-0.38,-0.375,-0.36,-0.335,-0.33,-0.335,-0.345,-0.335,-0.315,-0.28,-0.28,-0.275,-0.285,-0.275,-0.245,-0.22,-0.225,-0.22,-0.22,-0.215,-0.2,-0.18,-0.16,-0.17,-0.16,-0.155,-0.12,-0.09,-0.08,-0.08,-0.08,-0.065,-0.04,-0.015,-0.015,-0.025,-0.035,-0.035,-0.03,-0.01,-0.005,-0.025,-0.05,-0.035,-0.02,-0.01,-0.02,-0.035,-0.05,-0.055,-0.04,-0.02,-0.02,-0.03,-0.04,-0.06,-0.05,-0.02,-0.03,-0.04,-0.055,-0.06,-0.06,-0.055,-0.05,-0.085,-0.145,-0.18,-0.2,-0.22,-0.235,-0.235,-0.23,-0.215,-0.18,-0.145,-0.155,-0.19,-0.24,-0.26,-0.305,-0.345,-0.405,-0.46,-0.53,-0.535,-0.545,-0.54,-0.575,-0.58,-0.62,-0.64,-0.65,-0.65,-0.67,-0.685,-0.69,-0.68,-0.635,-0.615,-0.61,-0.645,-0.68,-0.705,-0.745,-0.83,-0.985,-1.18,-1.35,-1.415,-1.38,-1.32,-1.265,-1.235,-1.19,-1.14,-1.04,-0.905,-0.79,-0.695,-0.62,-0.565,-0.49,-0.435,-0.395,-0.37,-0.375,-0.34,-0.295,-0.25,-0.205,-0.145,-0.09,0.01,0.115,0.245,0.305,0.32,0.295,0.31,0.325,0.365,0.355,0.35,0.325,0.355,0.405,0.485,0.51,0.525,0.52,0.54,0.57,0.59,0.615,0.615,0.63,0.635,0.66,0.68,0.68,0.67,0.675,0.67,0.695,0.72,0.73,0.73,0.74,0.76,0.78,0.815,0.83,0.835,0.845,0.87,0.92,0.965,0.99,1.005,1.02,1.045,1.055,1.09,1.12,1.12,1.13,1.15,1.185,1.205,1.21,1.22,1.22,1.23,1.255,1.285,1.295,1.29,1.27,1.26,1.285,1.275,1.28,1.27,1.24,1.21,1.185,1.155,1.115,1.045,0.94,0.865,0.795,0.72,0.64,0.585,0.525,0.46,0.38,0.345,0.305,0.245,0.235,0.215,0.205,0.21,0.19,0.17,0.145,0.12,0.14,0.13,0.115,0.095,0.085,0.065,0.09,0.105,0.095,0.09,0.065,0.07,0.06,0.08,0.07,0.05,0.035,0.01,0.015,0.025,0.03,0.025,0.005,-0.01,-0.005,0.0,-0.01,-0.01,-0.025,-0.015,-0.005,0.005,-0.015,-0.035,-0.05,-0.05,-0.035,-0.03,-0.03,-0.05,-0.075,-0.07,-0.05,-0.03,-0.045,-0.055,-0.08,-0.085,-0.075,-0.07,-0.055,-0.065,-0.1,-0.105,-0.11,-0.1,-0.095,-0.11,-0.115,-0.13,-0.135,-0.115,-0.1,-0.12,-0.145,-0.175,-0.13,-0.12,-0.125
1.0,214.0,0.245,0.215,0.17,0.12,0.07,0.03,-0.01,-0.06,-0.09,-0.105,-0.135,-0.17,-0.21,-0.23,-0.23,-0.23,-0.215,-0.24,-0.26,-0.27,-0.27,-0.265,-0.255,-0.265,-0.28,-0.295,-0.295,-0.3,-0.3,-0.29,-0.315,-0.32,-0.31,-0.29,-0.3,-0.325,-0.35,-0.355,-0.335,-0.33,-0.32,-0.335,-0.355,-0.355,-0.355,-0.345,-0.345,-0.35,-0.36,-0.37,-0.37,-0.38,-0.375,-0.38,-0.405,-0.415,-0.425,-0.425,-0.42,-0.43,-0.435,-0.44,-0.435,-0.43,-0.415,-0.42,-0.425,-0.415,-0.39,-0.37,-0.375,-0.365,-0.37,-0.36,-0.315,-0.27,-0.26,-0.24,-0.215,-0.195,-0.155,-0.11,-0.07,-0.07,-0.05,-0.035,-0.02,0.015,0.035,0.015,0.02,0.02,0.035,0.05,0.085,0.125,0.2,0.305,0.43,0.565,0.655,0.72,0.785,0.83,0.94,1.025,1.105,1.135,1.155,1.21,1.245,1.255,1.25,1.185,1.065,0.96,0.815,0.665,0.485,0.29,0.06,-0.2,-0.435,-0.63,-0.825,-1.025,-1.21,-1.35,-1.445,-1.52,-1.55,-1.595,-1.65,-1.695,-1.715,-1.72,-1.72,-1.755,-1.775,-1.795,-1.8,-1.77,-1.715,-1.63,-1.515,-1.39,-1.225,-1.06,-0.915,-0.83,-0.78,-0.73,-0.65,-0.59,-0.53,-0.495,-0.455,-0.41,-0.32,-0.22,-0.115,-0.03,0.03,0.1,0.17,0.255,0.295,0.32,0.34,0.375,0.4,0.465,0.51,0.53,0.55,0.575,0.625,0.66,0.695,0.72,0.73,0.75,0.78,0.8,0.825,0.835,0.84,0.845,0.865,0.89,0.915,0.915,0.93,0.935,0.95,1.0,1.035,1.06,1.08,1.1,1.14,1.175,1.215,1.245,1.27,1.275,1.3,1.335,1.355,1.37,1.37,1.37,1.385,1.41,1.42,1.415,1.4,1.395,1.41,1.42,1.415,1.39,1.35,1.33,1.295,1.295,1.25,1.19,1.135,1.065,1.04,1.025,0.97,0.88,0.785,0.69,0.625,0.565,0.49,0.425,0.375,0.33,0.29,0.27,0.25,0.22,0.185,0.17,0.175,0.15,0.14,0.12,0.095,0.08,0.09,0.095,0.095,0.085,0.065,0.055,0.05,0.045,0.055,0.04,0.025,0.025,0.035,0.04,0.04,0.03,0.0,0.0,-0.005,0.01,0.03,0.03,0.005,-0.015,-0.015,-0.005,0.01,0.005,-0.015,-0.03,-0.025,-0.015,-0.02,-0.025,-0.035,-0.045,-0.02,-0.01,-0.005,-0.02,-0.055,-0.07,-0.06,-0.035,-0.045,-0.05
1.0,214.0,-0.38,-0.39,-0.385,-0.4,-0.405,-0.405,-0.385,-0.395,-0.41,-0.41,-0.405,-0.39,-0.35,-0.325,-0.33,-0.335,-0.34,-0.31,-0.29,-0.25,-0.235,-0.235,-0.23,-0.2,-0.17,-0.135,-0.14,-0.12,-0.09,-0.07,-0.045,-0.035,-0.025,-0.03,-0.015,0.015,0.035,0.035,0.03,0.02,0.02,0.015,0.035,0.055,0.045,0.035,0.005,0.01,0.03,0.03,0.01,0.0,-0.015,-0.005,0.02,0.025,0.015,-0.01,-0.025,-0.025,0.0,0.025,0.015,0.005,0.005,-0.005,0.01,0.015,0.01,-0.015,-0.03,-0.025,0.005,0.0,-0.005,-0.005,-0.005,-0.01,0.0,0.0,-0.015,-0.01,-0.02,-0.02,0.0,-0.01,-0.01,-0.035,-0.03,-0.02,0.01,0.025,0.015,-0.01,-0.02,-0.025,-0.02,-0.005,0.0,0.0,0.01,0.015,0.03,0.05,0.06,0.075,0.075,0.085,0.11,0.15,0.13,0.13,0.125,0.155,0.185,0.15,0.025,-0.145,-0.45,-0.91,-1.38,-1.675,-1.79,-1.85,-1.895,-1.925,-1.935,-1.95,-1.955,-1.975,-1.99,-2.0,-1.98,-1.96,-1.945,-1.96,-1.945,-1.91,-1.87,-1.83,-1.79,-1.755,-1.71,-1.665,-1.595,-1.53,-1.48,-1.425,-1.365,-1.32,-1.23,-1.155,-1.095,-1.005,-0.92,-0.835,-0.76,-0.705,-0.68,-0.665,-0.64,-0.59,-0.55,-0.47,-0.435,-0.4,-0.365,-0.33,-0.255,-0.175,-0.115,-0.06,0.03,0.105,0.18,0.26,0.295,0.355,0.45,0.535,0.63,0.705,0.745,0.775,0.81,0.87,0.94,1.0,1.045,1.08,1.11,1.155,1.21,1.265,1.29,1.29,1.335,1.375,1.42,1.46,1.475,1.495,1.49,1.53,1.58,1.61,1.62,1.615,1.63,1.645,1.67,1.675,1.68,1.66,1.66,1.68,1.71,1.73,1.74,1.73,1.715,1.715,1.755,1.765,1.775,1.77,1.755,1.775,1.785,1.805,1.79,1.765,1.76,1.75,1.745,1.745,1.725,1.695,1.665,1.655,1.65,1.65,1.615,1.58,1.535,1.515,1.505,1.47,1.425,1.375,1.32,1.25,1.205,1.145,1.08,0.985,0.905,0.81,0.755,0.695,0.595,0.535,0.46,0.425,0.375,0.345,0.28,0.235,0.195,0.185,0.18,0.18,0.15,0.125,0.105,0.105,0.115,0.125,0.12,0.09,0.075,0.085,0.09,0.09,0.075,0.065,0.04,0.05,0.065,0.07,0.07,0.06,0.04,0.05,0.045,0.055,0.05,0.035,0.03,0.04
1.0,214.0,-0.3,-0.285,-0.295,-0.315,-0.33,-0.33,-0.335,-0.31,-0.335,-0.34,-0.345,-0.335,-0.325,-0.305,-0.31,-0.325,-0.34,-0.35,-0.34,-0.325,-0.335,-0.355,-0.36,-0.355,-0.345,-0.33,-0.35,-0.375,-0.39,-0.375,-0.365,-0.355,-0.375,-0.38,-0.41,-0.41,-0.405,-0.405,-0.41,-0.43,-0.435,-0.44,-0.435,-0.43,-0.45,-0.475,-0.475,-0.485,-0.48,-0.47,-0.5,-0.525,-0.54,-0.53,-0.525,-0.51,-0.52,-0.555,-0.555,-0.525,-0.51,-0.47,-0.45,-0.425,-0.41,-0.38,-0.325,-0.275,-0.245,-0.21,-0.2,-0.18,-0.14,-0.115,-0.11,-0.125,-0.13,-0.13,-0.1,-0.08,-0.085,-0.09,-0.085,-0.09,-0.07,-0.05,-0.05,-0.06,-0.075,-0.075,-0.06,-0.055,-0.045,-0.055,-0.065,-0.04,-0.015,0.04,0.065,0.105,0.185,0.29,0.43,0.56,0.64,0.72,0.8,0.905,1.045,1.17,1.25,1.3,1.35,1.37,1.325,1.175,0.89,0.545,0.17,-0.21,-0.565,-0.845,-1.115,-1.34,-1.57,-1.735,-1.85,-1.91,-1.965,-2.025,-2.055,-2.06,-2.04,-1.99,-1.915,-1.775,-1.585,-1.315,-1.06,-0.885,-0.79,-0.73,-0.69,-0.635,-0.565,-0.48,-0.415,-0.36,-0.32,-0.27,-0.225,-0.165,-0.17,-0.15,-0.125,-0.08,-0.035,0.0,0.01,0.02,0.05,0.065,0.1,0.115,0.135,0.125,0.145,0.18,0.23,0.245,0.25,0.24,0.255,0.265,0.32,0.37,0.425,0.435,0.47,0.495,0.535,0.58,0.605,0.64,0.67,0.705,0.72,0.775,0.8,0.825,0.835,0.88,0.94,0.975,1.005,1.05,1.065,1.115,1.165,1.22,1.245,1.25,1.295,1.335,1.36,1.385,1.385,1.39,1.36,1.345,1.32,1.29,1.225,1.17,1.08,1.025,1.005,0.975,0.92,0.86,0.805,0.775,0.745,0.72,0.68,0.64,0.59,0.555,0.54,0.52,0.5,0.45,0.42,0.405,0.4,0.395,0.36,0.325,0.295,0.28,0.255,0.245,0.195,0.145,0.13,0.095,0.09,0.1,0.065,0.045,0.01,0.015,0.02,0.07,0.08,0.07,0.065,0.07,0.085,0.085,0.09,0.085,0.085,0.12,0.18,0.235,0.27,0.3,0.345,0.415,0.55,0.72,0.875,1.015,1.19,1.38,1.525,1.59,1.59,1.545,1.335,0.88,0.27,-0.305,-0.72,-0.945,-1.03,-1.05,-1.045,-1.05,-1.075,-1.095,-1.13,-1.155,-1.195,-1.2,-1.235,-1.28,-1.305,-1.31
1.0,214.0,0.135,0.125,0.145,0.18,0.23,0.245,0.25,0.24,0.255,0.265,0.32,0.37,0.425,0.435,0.47,0.495,0.535,0.58,0.605,0.64,0.67,0.705,0.72,0.775,0.8,0.825,0.835,0.88,0.94,0.975,1.005,1.05,1.065,1.115,1.165,1.22,1.245,1.25,1.295,1.335,1.36,1.385,1.385,1.39,1.36,1.345,1.32,1.29,1.225,1.17,1.08,1.025,1.005,0.975,0.92,0.86,0.805,0.775,0.745,0.72,0.68,0.64,0.59,0.555,0.54,0.52,0.5,0.45,0.42,0.405,0.4,0.395,0.36,0.325,0.295,0.28,0.255,0.245,0.195,0.145,0.13,0.095,0.09,0.1,0.065,0.045,0.01,0.015,0.02,0.07,0.08,0.07,0.065,0.07,0.085,0.085,0.09,0.085,0.085,0.12,0.18,0.235,0.27,0.3,0.345,0.415,0.55,0.72,0.875,1.015,1.19,1.38,1.525,1.59,1.59,1.545,1.335,0.88,0.27,-0.305,-0.72,-0.945,-1.03,-1.05,-1.045,-1.05,-1.075,-1.095,-1.13,-1.155,-1.195,-1.2,-1.235,-1.28,-1.305,-1.31,-1.28,-1.25,-1.25,-1.245,-1.225,-1.205,-1.16,-1.12,-1.105,-1.085,-1.065,-1.055,-1.02,-0.99,-0.955,-0.935,-0.895,-0.86,-0.775,-0.7,-0.65,-0.61,-0.58,-0.525,-0.495,-0.465,-0.455,-0.46,-0.475,-0.46,-0.45,-0.43,-0.43,-0.435,-0.435,-0.445,-0.43,-0.435,-0.435,-0.435,-0.44,-0.44,-0.395,-0.39,-0.39,-0.39,-0.385,-0.36,-0.325,-0.28,-0.275,-0.245,-0.23,-0.195,-0.145,-0.1,-0.08,-0.065,-0.035,0.005,0.07,0.12,0.13,0.135,0.14,0.175,0.215,0.245,0.25,0.22,0.22,0.23,0.245,0.275,0.27,0.27,0.255,0.245,0.265,0.265,0.26,0.245,0.235,0.22,0.24,0.255,0.235,0.21,0.18,0.175,0.16,0.185,0.15,0.13,0.11,0.09,0.08,0.065,0.04,0.015,-0.005,-0.02,-0.025,-0.03,-0.065,-0.085,-0.1,-0.1,-0.095,-0.075,-0.11,-0.145,-0.155,-0.16,-0.155,-0.145,-0.155,-0.175,-0.195,-0.19,-0.19,-0.185,-0.185,-0.205,-0.235,-0.235,-0.21,-0.215,-0.24,-0.255,-0.26,-0.265,-0.24,-0.225,-0.24,-0.235,-0.26,-0.28,-0.27,-0.245,-0.245,-0.255,-0.29,-0.275,-0.27,-0.255,-0.25,-0.255,-0.275,-0.285,-0.27,-0.25,-0.27,-0.275,-0.285,-0.275,-0.26,-0.25,-0.255,-0.28,-0.27,-0.29,-0.285,-0.27
1.0,214.0,-0.405,-0.425,-0.455,-0.455,-0.44,-0.435,-0.445,-0.465,-0.495,-0.495,-0.505,-0.49,-0.485,-0.49,-0.52,-0.545,-0.545,-0.535,-0.54,-0.565,-0.585,-0.58,-0.55,-0.53,-0.51,-0.515,-0.505,-0.48,-0.45,-0.425,-0.405,-0.38,-0.365,-0.335,-0.3,-0.285,-0.27,-0.27,-0.275,-0.26,-0.215,-0.205,-0.19,-0.19,-0.2,-0.195,-0.18,-0.185,-0.175,-0.18,-0.19,-0.175,-0.16,-0.14,-0.145,-0.15,-0.165,-0.17,-0.16,-0.15,-0.15,-0.15,-0.175,-0.175,-0.165,-0.15,-0.15,-0.145,-0.165,-0.175,-0.165,-0.15,-0.155,-0.155,-0.16,-0.15,-0.145,-0.13,-0.13,-0.15,-0.185,-0.2,-0.195,-0.18,-0.185,-0.195,-0.21,-0.215,-0.19,-0.14,-0.11,-0.06,-0.005,0.1,0.22,0.37,0.52,0.62,0.735,0.885,1.065,1.265,1.485,1.645,1.82,2.01,2.18,2.295,2.35,2.355,2.365,2.37,2.37,2.375,2.33,2.28,2.215,2.145,2.055,1.94,1.775,1.55,1.275,0.985,0.72,0.495,0.325,0.195,0.095,0.02,-0.05,-0.105,-0.185,-0.25,-0.325,-0.38,-0.41,-0.445,-0.47,-0.52,-0.54,-0.57,-0.585,-0.61,-0.635,-0.66,-0.685,-0.7,-0.68,-0.695,-0.7,-0.74,-0.77,-0.78,-0.755,-0.745,-0.74,-0.755,-0.77,-0.775,-0.775,-0.79,-0.815,-0.84,-0.865,-0.875,-0.89,-0.905,-0.935,-0.96,-1.0,-1.015,-1.035,-1.065,-1.08,-1.11,-1.14,-1.18,-1.175,-1.195,-1.205,-1.225,-1.225,-1.23,-1.225,-1.215,-1.215,-1.255,-1.26,-1.26,-1.255,-1.21,-1.195,-1.185,-1.195,-1.19,-1.185,-1.165,-1.17,-1.15,-1.145,-1.105,-1.055,-1.01,-0.975,-0.94,-0.91,-0.87,-0.82,-0.745,-0.695,-0.655,-0.625,-0.6,-0.55,-0.52,-0.48,-0.45,-0.43,-0.41,-0.375,-0.345,-0.335,-0.32,-0.315,-0.315,-0.285,-0.275,-0.24,-0.25,-0.25,-0.255,-0.26,-0.24,-0.22,-0.23,-0.255,-0.24,-0.225,-0.215,-0.22,-0.225,-0.235,-0.225,-0.21,-0.215,-0.205,-0.195,-0.2,-0.225,-0.225,-0.2,-0.18,-0.19,-0.205,-0.22,-0.22,-0.195,-0.195,-0.21,-0.205,-0.215,-0.2,-0.175,-0.165,-0.19,-0.205,-0.21,-0.2,-0.175,-0.18,-0.19,-0.19,-0.19,-0.18,-0.17,-0.165,-0.175,-0.17,-0.18,-0.19,-0.175,-0.175,-0.175,-0.195,-0.21,-0.2,-0.17,-0.17,-0.18,-0.195,-0.205,-0.185,-0.185,-0.18,-0.18,-0.19,-0.195,-0.2,-0.185
1.0,214.0,-0.2,-0.22,-0.215,-0.21,-0.175,-0.18,-0.2,-0.22,-0.215,-0.195,-0.195,-0.19,-0.2,-0.22,-0.23,-0.21,-0.185,-0.19,-0.195,-0.215,-0.215,-0.2,-0.2,-0.195,-0.215,-0.245,-0.235,-0.22,-0.205,-0.215,-0.205,-0.215,-0.23,-0.22,-0.205,-0.22,-0.225,-0.235,-0.23,-0.225,-0.2,-0.205,-0.225,-0.255,-0.25,-0.245,-0.22,-0.21,-0.225,-0.23,-0.24,-0.23,-0.225,-0.22,-0.23,-0.235,-0.235,-0.225,-0.21,-0.215,-0.21,-0.235,-0.25,-0.225,-0.21,-0.195,-0.225,-0.23,-0.23,-0.225,-0.195,-0.19,-0.205,-0.225,-0.215,-0.185,-0.15,-0.155,-0.135,-0.125,-0.1,-0.07,-0.06,-0.045,-0.03,-0.025,0.005,0.05,0.125,0.17,0.19,0.225,0.24,0.29,0.355,0.42,0.48,0.53,0.595,0.665,0.715,0.775,0.82,0.875,0.935,1.04,1.17,1.29,1.4,1.465,1.51,1.555,1.61,1.655,1.635,1.565,1.405,1.14,0.805,0.485,0.22,0.0,-0.17,-0.34,-0.475,-0.61,-0.695,-0.735,-0.77,-0.785,-0.795,-0.86,-0.91,-0.995,-1.05,-1.125,-1.155,-1.205,-1.22,-1.205,-1.18,-1.135,-1.095,-1.055,-1.005,-0.96,-0.88,-0.765,-0.67,-0.595,-0.55,-0.535,-0.535,-0.5,-0.465,-0.45,-0.445,-0.455,-0.465,-0.44,-0.43,-0.405,-0.415,-0.435,-0.425,-0.425,-0.405,-0.41,-0.425,-0.43,-0.435,-0.43,-0.4,-0.385,-0.39,-0.395,-0.405,-0.385,-0.375,-0.365,-0.365,-0.375,-0.36,-0.335,-0.325,-0.315,-0.305,-0.315,-0.31,-0.275,-0.245,-0.23,-0.225,-0.22,-0.225,-0.195,-0.15,-0.125,-0.1,-0.105,-0.095,-0.045,-0.015,0.025,0.045,0.05,0.055,0.07,0.105,0.145,0.17,0.185,0.2,0.235,0.25,0.255,0.26,0.25,0.24,0.235,0.225,0.245,0.21,0.17,0.145,0.13,0.13,0.1,0.065,0.01,-0.005,-0.02,-0.015,-0.03,-0.06,-0.08,-0.1,-0.105,-0.1,-0.105,-0.135,-0.15,-0.15,-0.145,-0.14,-0.135,-0.155,-0.17,-0.19,-0.195,-0.18,-0.175,-0.19,-0.2,-0.235,-0.225,-0.2,-0.21,-0.215,-0.225,-0.235,-0.215,-0.215,-0.22,-0.23,-0.24,-0.24,-0.24,-0.21,-0.21,-0.24,-0.24,-0.25,-0.24,-0.225,-0.225,-0.225,-0.26,-0.255,-0.255,-0.24,-0.24,-0.235,-0.245,-0.25,-0.25,-0.25,-0.255,-0.245,-0.255,-0.265,-0.27,-0.245,-0.245,-0.245,-0.27,-0.28,-0.28,-0.27,-0.255
1.0,214.0,-0.545,-0.56,-0.565,-0.55,-0.545,-0.52,-0.5,-0.51,-0.515,-0.5,-0.485,-0.455,-0.415,-0.39,-0.39,-0.4,-0.365,-0.32,-0.27,-0.265,-0.265,-0.275,-0.255,-0.235,-0.24,-0.235,-0.25,-0.24,-0.235,-0.215,-0.215,-0.21,-0.23,-0.225,-0.215,-0.205,-0.205,-0.215,-0.245,-0.25,-0.235,-0.205,-0.21,-0.215,-0.24,-0.235,-0.225,-0.21,-0.205,-0.24,-0.26,-0.25,-0.235,-0.22,-0.23,-0.23,-0.23,-0.225,-0.215,-0.205,-0.21,-0.235,-0.245,-0.22,-0.21,-0.195,-0.2,-0.2,-0.215,-0.215,-0.21,-0.205,-0.2,-0.2,-0.205,-0.205,-0.195,-0.155,-0.14,-0.13,-0.1,-0.06,-0.01,0.065,0.13,0.185,0.22,0.255,0.295,0.315,0.335,0.355,0.36,0.375,0.385,0.395,0.39,0.34,0.285,0.2,0.08,-0.105,-0.355,-0.65,-0.945,-1.185,-1.385,-1.525,-1.67,-1.775,-1.88,-1.945,-2.02,-2.065,-2.095,-2.09,-2.075,-2.045,-2.0,-1.94,-1.825,-1.71,-1.6,-1.51,-1.415,-1.34,-1.235,-1.15,-1.07,-0.99,-0.88,-0.775,-0.69,-0.63,-0.58,-0.505,-0.42,-0.32,-0.24,-0.185,-0.155,-0.12,-0.07,-0.04,0.0,0.0,0.01,0.03,0.045,0.075,0.08,0.075,0.06,0.055,0.06,0.095,0.1,0.11,0.125,0.135,0.175,0.23,0.28,0.29,0.305,0.34,0.355,0.42,0.445,0.455,0.455,0.485,0.52,0.565,0.61,0.62,0.615,0.63,0.665,0.705,0.735,0.78,0.81,0.845,0.885,0.93,0.995,1.04,1.065,1.115,1.145,1.195,1.235,1.275,1.33,1.38,1.41,1.46,1.495,1.51,1.475,1.45,1.435,1.4,1.37,1.31,1.245,1.175,1.135,1.09,1.04,0.98,0.925,0.87,0.84,0.82,0.79,0.745,0.705,0.655,0.62,0.595,0.56,0.52,0.47,0.42,0.395,0.37,0.355,0.315,0.275,0.205,0.19,0.185,0.16,0.135,0.085,0.06,0.055,0.04,0.035,-0.005,-0.045,-0.07,-0.075,-0.05,-0.065,-0.085,-0.105,-0.13,-0.135,-0.13,-0.14,-0.15,-0.145,-0.16,-0.17,-0.165,-0.165,-0.165,-0.18,-0.215,-0.205,-0.2,-0.19,-0.21,-0.21,-0.22,-0.245,-0.24,-0.215,-0.235,-0.24,-0.27,-0.265,-0.245,-0.235,-0.25,-0.285,-0.285,-0.28,-0.26,-0.26,-0.275,-0.285,-0.29,-0.275,-0.26,-0.25,-0.27,-0.29,-0.305,-0.31,-0.28,-0.29,-0.3,-0.32,-0.335,-0.315,-0.295
1.0,214.0,-0.38,-0.395,-0.41,-0.4,-0.39,-0.385,-0.4,-0.425,-0.445,-0.435,-0.415,-0.42,-0.435,-0.475,-0.46,-0.44,-0.435,-0.43,-0.465,-0.485,-0.485,-0.485,-0.465,-0.48,-0.48,-0.5,-0.485,-0.49,-0.475,-0.51,-0.51,-0.515,-0.52,-0.51,-0.51,-0.505,-0.52,-0.545,-0.555,-0.555,-0.535,-0.53,-0.55,-0.555,-0.555,-0.555,-0.545,-0.55,-0.555,-0.555,-0.545,-0.54,-0.53,-0.53,-0.545,-0.55,-0.53,-0.505,-0.485,-0.475,-0.475,-0.47,-0.455,-0.44,-0.42,-0.39,-0.38,-0.37,-0.35,-0.345,-0.3,-0.29,-0.275,-0.28,-0.265,-0.245,-0.21,-0.22,-0.215,-0.22,-0.195,-0.19,-0.195,-0.175,-0.18,-0.185,-0.2,-0.17,-0.165,-0.135,-0.125,-0.105,-0.09,-0.02,0.05,0.09,0.13,0.165,0.235,0.31,0.385,0.43,0.49,0.535,0.595,0.655,0.725,0.77,0.795,0.82,0.845,0.89,0.92,0.9,0.85,0.73,0.57,0.355,0.105,-0.13,-0.36,-0.58,-0.765,-0.925,-1.065,-1.195,-1.31,-1.41,-1.5,-1.54,-1.56,-1.595,-1.62,-1.64,-1.67,-1.685,-1.69,-1.695,-1.69,-1.69,-1.675,-1.655,-1.6,-1.525,-1.44,-1.335,-1.23,-1.11,-0.99,-0.885,-0.8,-0.74,-0.695,-0.66,-0.62,-0.585,-0.54,-0.49,-0.455,-0.385,-0.335,-0.295,-0.28,-0.25,-0.235,-0.18,-0.125,-0.105,-0.09,-0.075,-0.065,-0.025,-0.005,0.025,0.02,0.01,0.025,0.045,0.065,0.06,0.06,0.065,0.085,0.13,0.155,0.19,0.205,0.205,0.22,0.255,0.295,0.325,0.345,0.35,0.385,0.41,0.445,0.475,0.485,0.5,0.52,0.56,0.575,0.605,0.615,0.635,0.655,0.705,0.735,0.76,0.79,0.81,0.835,0.87,0.915,0.94,0.945,0.94,0.95,0.965,0.98,0.995,1.01,0.995,0.995,0.995,1.01,0.995,0.94,0.915,0.875,0.865,0.85,0.795,0.755,0.69,0.66,0.63,0.605,0.575,0.525,0.48,0.46,0.445,0.435,0.405,0.375,0.35,0.305,0.305,0.295,0.255,0.21,0.17,0.14,0.135,0.125,0.085,0.055,0.035,0.015,-0.005,-0.005,-0.02,-0.04,-0.07,-0.07,-0.06,-0.06,-0.08,-0.105,-0.14,-0.14,-0.145,-0.125,-0.135,-0.145,-0.16,-0.17,-0.165,-0.165,-0.175,-0.185,-0.2,-0.21,-0.195,-0.2,-0.21,-0.23,-0.24,-0.235,-0.225,-0.21,-0.22,-0.245,-0.255,-0.255,-0.24,-0.22,-0.225
1.0,214.0,-0.32,-0.365,-0.41,-0.455,-0.455,-0.42,-0.42,-0.445,-0.48,-0.485,-0.455,-0.445,-0.455,-0.485,-0.51,-0.51,-0.49,-0.47,-0.48,-0.5,-0.505,-0.52,-0.52,-0.49,-0.495,-0.505,-0.515,-0.515,-0.505,-0.49,-0.485,-0.51,-0.535,-0.545,-0.525,-0.495,-0.5,-0.53,-0.555,-0.565,-0.55,-0.57,-0.58,-0.585,-0.595,-0.59,-0.58,-0.585,-0.605,-0.63,-0.645,-0.655,-0.635,-0.64,-0.64,-0.655,-0.675,-0.665,-0.66,-0.63,-0.625,-0.64,-0.665,-0.65,-0.625,-0.605,-0.59,-0.61,-0.595,-0.56,-0.505,-0.45,-0.425,-0.425,-0.42,-0.44,-0.375,-0.31,-0.295,-0.3,-0.285,-0.29,-0.275,-0.265,-0.255,-0.245,-0.25,-0.25,-0.25,-0.25,-0.26,-0.27,-0.265,-0.225,-0.185,-0.145,-0.105,-0.085,-0.055,-0.01,0.07,0.18,0.315,0.43,0.525,0.655,0.795,0.915,1.005,1.07,1.115,1.17,1.24,1.26,1.225,1.115,0.885,0.57,0.21,-0.15,-0.45,-0.74,-1.005,-1.19,-1.335,-1.45,-1.53,-1.645,-1.73,-1.795,-1.835,-1.85,-1.88,-1.92,-1.96,-1.975,-1.925,-1.89,-1.875,-1.82,-1.655,-1.445,-1.24,-1.07,-0.955,-0.9,-0.895,-0.865,-0.83,-0.785,-0.735,-0.665,-0.595,-0.515,-0.43,-0.35,-0.29,-0.27,-0.29,-0.3,-0.245,-0.145,-0.085,-0.125,-0.15,-0.15,-0.095,-0.01,0.05,0.06,0.07,0.075,0.1,0.145,0.185,0.165,0.14,0.13,0.15,0.205,0.225,0.265,0.295,0.335,0.405,0.455,0.475,0.48,0.47,0.475,0.54,0.61,0.685,0.725,0.725,0.71,0.725,0.735,0.74,0.765,0.8,0.83,0.87,0.915,0.91,0.905,0.905,0.94,0.95,0.96,0.985,0.98,0.98,0.975,0.95,0.93,0.91,0.865,0.8,0.79,0.765,0.725,0.675,0.62,0.555,0.5,0.455,0.415,0.36,0.315,0.28,0.26,0.21,0.13,0.105,0.085,0.03,-0.035,-0.05,-0.03,-0.025,-0.06,-0.12,-0.16,-0.175,-0.17,-0.15,-0.13,-0.145,-0.15,-0.16,-0.15,-0.16,-0.165,-0.185,-0.195,-0.2,-0.195,-0.2,-0.24,-0.26,-0.26,-0.245,-0.24,-0.235,-0.23,-0.25,-0.265,-0.25,-0.245,-0.25,-0.255,-0.285,-0.285,-0.255,-0.22,-0.205,-0.225,-0.275,-0.28,-0.275,-0.265,-0.23,-0.245,-0.25,-0.29,-0.32,-0.32,-0.31,-0.29,-0.3,-0.295,-0.285,-0.28,-0.295,-0.295,-0.27,-0.27,-0.275,-0.285
1.0,214.0,-0.41,-0.4,-0.405,-0.43,-0.445,-0.47,-0.46,-0.445,-0.465,-0.485,-0.49,-0.485,-0.485,-0.495,-0.505,-0.53,-0.535,-0.555,-0.575,-0.58,-0.58,-0.575,-0.585,-0.605,-0.6,-0.615,-0.63,-0.64,-0.635,-0.68,-0.7,-0.69,-0.665,-0.665,-0.665,-0.675,-0.655,-0.635,-0.61,-0.62,-0.625,-0.605,-0.57,-0.535,-0.52,-0.525,-0.52,-0.515,-0.475,-0.44,-0.42,-0.41,-0.39,-0.37,-0.335,-0.285,-0.255,-0.225,-0.19,-0.145,-0.12,-0.135,-0.145,-0.17,-0.165,-0.155,-0.13,-0.12,-0.125,-0.135,-0.155,-0.155,-0.13,-0.115,-0.105,-0.125,-0.12,-0.125,-0.12,-0.12,-0.135,-0.12,-0.14,-0.13,-0.135,-0.14,-0.155,-0.16,-0.145,-0.135,-0.125,-0.12,-0.115,-0.135,-0.17,-0.205,-0.22,-0.245,-0.285,-0.315,-0.325,-0.28,-0.195,-0.055,0.095,0.24,0.365,0.475,0.57,0.665,0.79,0.88,0.88,0.775,0.635,0.515,0.425,0.345,0.265,0.195,0.105,0.02,-0.1,-0.255,-0.4,-0.505,-0.575,-0.59,-0.62,-0.665,-0.72,-0.725,-0.72,-0.705,-0.665,-0.62,-0.57,-0.51,-0.435,-0.375,-0.325,-0.27,-0.265,-0.24,-0.23,-0.23,-0.255,-0.275,-0.27,-0.255,-0.235,-0.215,-0.2,-0.22,-0.25,-0.265,-0.26,-0.24,-0.255,-0.275,-0.28,-0.265,-0.21,-0.145,-0.12,-0.13,-0.16,-0.2,-0.205,-0.145,-0.12,-0.115,-0.145,-0.15,-0.135,-0.115,-0.09,-0.075,-0.085,-0.1,-0.085,-0.055,-0.04,-0.005,0.0,0.0,0.02,0.0,0.01,0.02,0.06,0.08,0.13,0.145,0.17,0.185,0.205,0.22,0.235,0.255,0.26,0.245,0.225,0.23,0.29,0.335,0.355,0.37,0.37,0.41,0.42,0.43,0.44,0.42,0.415,0.41,0.425,0.43,0.415,0.37,0.325,0.265,0.25,0.25,0.25,0.22,0.185,0.155,0.13,0.145,0.14,0.115,0.065,0.055,0.025,0.005,-0.025,-0.035,-0.045,-0.04,-0.05,-0.08,-0.12,-0.135,-0.12,-0.125,-0.12,-0.115,-0.12,-0.14,-0.155,-0.145,-0.13,-0.14,-0.155,-0.14,-0.14,-0.13,-0.135,-0.14,-0.155,-0.17,-0.175,-0.18,-0.17,-0.165,-0.155,-0.165,-0.16,-0.17,-0.16,-0.155,-0.18,-0.195,-0.235,-0.2,-0.175,-0.145,-0.14,-0.185,-0.225,-0.22,-0.22,-0.205,-0.21,-0.23,-0.24,-0.245,-0.2,-0.195,-0.22,-0.26,-0.27,-0.24,-0.215,-0.215,-0.245,-0.27,-0.265,-0.25
1.0,214.0,-0.28,-0.27,-0.285,-0.27,-0.275,-0.28,-0.285,-0.275,-0.275,-0.285,-0.265,-0.295,-0.305,-0.295,-0.285,-0.27,-0.295,-0.31,-0.35,-0.34,-0.32,-0.305,-0.315,-0.32,-0.34,-0.35,-0.335,-0.325,-0.325,-0.33,-0.335,-0.325,-0.3,-0.29,-0.305,-0.325,-0.34,-0.3,-0.285,-0.245,-0.23,-0.245,-0.235,-0.195,-0.16,-0.135,-0.115,-0.12,-0.125,-0.1,-0.06,-0.03,-0.025,-0.03,-0.03,-0.015,0.005,0.03,0.025,0.0,-0.005,0.0,0.015,0.03,0.03,0.02,0.005,0.01,0.005,0.025,0.015,0.015,-0.015,-0.01,-0.005,0.015,0.01,-0.02,-0.02,-0.01,0.005,0.005,-0.01,-0.035,-0.04,-0.03,-0.01,-0.005,0.0,-0.02,-0.045,-0.045,-0.03,-0.02,-0.06,-0.07,-0.105,-0.135,-0.12,-0.1,-0.05,0.03,0.095,0.205,0.305,0.455,0.63,0.875,1.125,1.385,1.62,1.725,1.73,1.645,1.545,1.46,1.325,1.185,0.995,0.84,0.665,0.48,0.285,0.11,-0.06,-0.185,-0.23,-0.205,-0.135,-0.08,-0.08,-0.125,-0.15,-0.125,-0.105,-0.105,-0.135,-0.13,-0.14,-0.15,-0.125,-0.115,-0.135,-0.16,-0.185,-0.2,-0.19,-0.175,-0.17,-0.195,-0.2,-0.2,-0.185,-0.15,-0.155,-0.155,-0.155,-0.155,-0.15,-0.12,-0.125,-0.155,-0.165,-0.15,-0.145,-0.12,-0.14,-0.16,-0.18,-0.18,-0.16,-0.135,-0.13,-0.145,-0.175,-0.18,-0.15,-0.125,-0.13,-0.135,-0.135,-0.125,-0.115,-0.095,-0.095,-0.085,-0.09,-0.065,-0.045,-0.015,0.0,0.02,0.04,0.05,0.07,0.085,0.1,0.115,0.14,0.165,0.2,0.23,0.25,0.255,0.245,0.26,0.27,0.27,0.245,0.23,0.21,0.22,0.225,0.215,0.205,0.185,0.16,0.145,0.145,0.145,0.12,0.085,0.075,0.06,0.07,0.065,0.05,0.035,0.02,0.025,0.03,0.04,0.025,-0.015,-0.04,-0.04,-0.015,0.01,0.0,-0.025,-0.045,-0.045,-0.04,-0.02,-0.01,-0.03,-0.06,-0.05,-0.06,-0.055,-0.09,-0.1,-0.09,-0.04,-0.015,-0.02,-0.02,-0.03,-0.045,-0.045,-0.055,-0.035,-0.045,-0.06,-0.05,-0.055,-0.05,-0.04,-0.055,-0.06,-0.08,-0.065,-0.04,-0.05,-0.065,-0.08,-0.08,-0.07,-0.055,-0.055,-0.07,-0.075,-0.07,-0.07,-0.07,-0.055,-0.06,-0.095,-0.095,-0.09,-0.08,-0.065,-0.06,-0.07,-0.08,-0.08,-0.075,-0.05,-0.04,-0.04
1.0,214.0,-0.375,-0.39,-0.38,-0.365,-0.37,-0.37,-0.39,-0.4,-0.395,-0.38,-0.375,-0.38,-0.405,-0.4,-0.39,-0.37,-0.365,-0.365,-0.385,-0.385,-0.375,-0.365,-0.34,-0.34,-0.35,-0.345,-0.335,-0.315,-0.305,-0.3,-0.315,-0.3,-0.285,-0.25,-0.22,-0.23,-0.235,-0.235,-0.205,-0.195,-0.19,-0.175,-0.18,-0.19,-0.17,-0.15,-0.145,-0.14,-0.145,-0.17,-0.155,-0.125,-0.125,-0.135,-0.145,-0.165,-0.14,-0.12,-0.125,-0.115,-0.145,-0.135,-0.135,-0.095,-0.085,-0.1,-0.11,-0.105,-0.115,-0.08,-0.075,-0.085,-0.09,-0.095,-0.08,-0.06,-0.04,-0.05,-0.05,-0.045,-0.005,0.025,0.045,0.055,0.065,0.105,0.135,0.185,0.225,0.265,0.315,0.36,0.415,0.495,0.56,0.62,0.675,0.73,0.82,0.89,0.955,1.03,1.085,1.15,1.235,1.315,1.385,1.445,1.48,1.515,1.535,1.555,1.575,1.53,1.475,1.435,1.38,1.31,1.22,1.095,0.97,0.86,0.755,0.665,0.56,0.45,0.345,0.265,0.2,0.15,0.07,0.0,-0.06,-0.115,-0.135,-0.17,-0.215,-0.25,-0.31,-0.335,-0.355,-0.37,-0.395,-0.43,-0.475,-0.5,-0.51,-0.53,-0.54,-0.565,-0.595,-0.625,-0.62,-0.625,-0.655,-0.655,-0.67,-0.695,-0.695,-0.7,-0.69,-0.71,-0.735,-0.75,-0.76,-0.76,-0.75,-0.77,-0.79,-0.805,-0.82,-0.81,-0.815,-0.845,-0.865,-0.885,-0.895,-0.885,-0.91,-0.925,-0.945,-0.97,-0.97,-0.985,-0.99,-1.01,-1.04,-1.055,-1.065,-1.05,-1.06,-1.075,-1.095,-1.105,-1.095,-1.09,-1.085,-1.105,-1.11,-1.115,-1.11,-1.1,-1.085,-1.09,-1.105,-1.095,-1.08,-1.05,-1.035,-1.025,-1.02,-1.015,-0.99,-0.955,-0.925,-0.905,-0.89,-0.87,-0.845,-0.795,-0.79,-0.765,-0.74,-0.705,-0.665,-0.63,-0.585,-0.555,-0.545,-0.52,-0.485,-0.445,-0.41,-0.4,-0.38,-0.37,-0.34,-0.31,-0.285,-0.265,-0.275,-0.275,-0.255,-0.23,-0.225,-0.235,-0.245,-0.24,-0.24,-0.195,-0.185,-0.195,-0.19,-0.2,-0.2,-0.185,-0.19,-0.185,-0.195,-0.19,-0.18,-0.165,-0.16,-0.175,-0.195,-0.18,-0.175,-0.155,-0.15,-0.155,-0.165,-0.18,-0.19,-0.165,-0.175,-0.165,-0.17,-0.175,-0.165,-0.155,-0.14,-0.16,-0.165,-0.17,-0.155,-0.15,-0.135,-0.14,-0.155,-0.155,-0.16,-0.15,-0.145,-0.14,-0.15,-0.16,-0.145,-0.125,-0.12,-0.125
1.0,214.0,-0.235,-0.23,-0.26,-0.27,-0.24,-0.23,-0.22,-0.215,-0.24,-0.26,-0.24,-0.23,-0.215,-0.23,-0.255,-0.255,-0.25,-0.25,-0.23,-0.24,-0.245,-0.255,-0.255,-0.245,-0.225,-0.23,-0.24,-0.255,-0.25,-0.24,-0.225,-0.245,-0.245,-0.25,-0.25,-0.24,-0.22,-0.235,-0.245,-0.255,-0.25,-0.24,-0.24,-0.23,-0.24,-0.25,-0.25,-0.235,-0.23,-0.22,-0.245,-0.255,-0.25,-0.23,-0.225,-0.225,-0.24,-0.25,-0.235,-0.225,-0.21,-0.22,-0.22,-0.245,-0.24,-0.235,-0.21,-0.225,-0.22,-0.245,-0.23,-0.21,-0.195,-0.195,-0.205,-0.2,-0.2,-0.175,-0.17,-0.16,-0.16,-0.165,-0.145,-0.125,-0.09,-0.095,-0.08,-0.08,-0.065,-0.045,-0.035,-0.05,-0.065,-0.075,-0.1,-0.12,-0.145,-0.175,-0.24,-0.31,-0.37,-0.425,-0.48,-0.575,-0.66,-0.74,-0.815,-0.875,-0.915,-1.0,-1.055,-1.105,-1.135,-1.145,-1.135,-1.16,-1.17,-1.175,-1.155,-1.12,-1.09,-1.075,-1.06,-1.045,-1.015,-0.975,-0.935,-0.9,-0.885,-0.865,-0.845,-0.785,-0.735,-0.7,-0.68,-0.65,-0.62,-0.565,-0.505,-0.49,-0.455,-0.425,-0.385,-0.335,-0.275,-0.255,-0.23,-0.21,-0.175,-0.13,-0.09,-0.065,-0.065,-0.04,-0.005,0.025,0.055,0.08,0.09,0.115,0.135,0.18,0.21,0.22,0.235,0.255,0.275,0.315,0.355,0.37,0.385,0.4,0.42,0.465,0.495,0.515,0.525,0.545,0.56,0.595,0.64,0.665,0.675,0.685,0.71,0.735,0.79,0.8,0.81,0.825,0.825,0.87,0.905,0.89,0.89,0.885,0.905,0.915,0.925,0.92,0.895,0.88,0.88,0.89,0.885,0.875,0.84,0.82,0.81,0.81,0.81,0.78,0.755,0.73,0.705,0.7,0.68,0.645,0.605,0.585,0.56,0.54,0.52,0.495,0.445,0.405,0.39,0.375,0.355,0.32,0.28,0.24,0.22,0.21,0.195,0.16,0.12,0.1,0.06,0.065,0.055,0.035,0.005,-0.03,-0.025,-0.02,-0.035,-0.045,-0.08,-0.095,-0.105,-0.11,-0.1,-0.115,-0.14,-0.155,-0.155,-0.155,-0.145,-0.155,-0.175,-0.19,-0.19,-0.175,-0.165,-0.18,-0.19,-0.215,-0.23,-0.205,-0.22,-0.2,-0.215,-0.245,-0.245,-0.235,-0.225,-0.235,-0.24,-0.255,-0.25,-0.255,-0.235,-0.24,-0.265,-0.275,-0.275,-0.27,-0.25,-0.25,-0.28,-0.285,-0.29,-0.27,-0.27,-0.275,-0.29,-0.285,-0.29,-0.285
1.0,214.0,-0.455,-0.44,-0.45,-0.44,-0.455,-0.465,-0.445,-0.45,-0.47,-0.48,-0.485,-0.5,-0.505,-0.49,-0.5,-0.52,-0.55,-0.555,-0.55,-0.54,-0.555,-0.585,-0.585,-0.58,-0.58,-0.545,-0.555,-0.565,-0.59,-0.59,-0.575,-0.545,-0.545,-0.555,-0.545,-0.55,-0.52,-0.495,-0.48,-0.47,-0.47,-0.47,-0.44,-0.42,-0.4,-0.395,-0.38,-0.36,-0.345,-0.295,-0.285,-0.275,-0.27,-0.25,-0.23,-0.205,-0.19,-0.2,-0.215,-0.205,-0.185,-0.155,-0.165,-0.165,-0.175,-0.18,-0.175,-0.17,-0.175,-0.185,-0.19,-0.2,-0.2,-0.185,-0.19,-0.19,-0.205,-0.195,-0.185,-0.185,-0.19,-0.21,-0.215,-0.195,-0.175,-0.13,-0.115,-0.075,-0.025,0.025,0.095,0.165,0.25,0.335,0.42,0.505,0.63,0.75,0.845,0.945,1.07,1.25,1.44,1.6,1.74,1.89,2.0,2.135,2.26,2.365,2.395,2.415,2.405,2.405,2.4,2.375,2.285,2.155,1.96,1.685,1.335,0.98,0.655,0.41,0.235,0.125,0.04,-0.06,-0.155,-0.25,-0.32,-0.355,-0.35,-0.37,-0.415,-0.465,-0.53,-0.595,-0.625,-0.65,-0.67,-0.72,-0.735,-0.755,-0.745,-0.75,-0.785,-0.845,-0.855,-0.855,-0.83,-0.805,-0.8,-0.82,-0.84,-0.86,-0.86,-0.845,-0.875,-0.905,-0.935,-0.96,-0.975,-0.95,-0.965,-0.995,-1.015,-1.05,-1.07,-1.06,-1.085,-1.11,-1.14,-1.17,-1.175,-1.175,-1.185,-1.21,-1.24,-1.25,-1.265,-1.255,-1.28,-1.28,-1.28,-1.27,-1.26,-1.235,-1.24,-1.265,-1.27,-1.24,-1.21,-1.16,-1.13,-1.135,-1.125,-1.1,-1.045,-0.99,-0.975,-0.95,-0.92,-0.875,-0.835,-0.785,-0.73,-0.685,-0.65,-0.595,-0.545,-0.495,-0.48,-0.46,-0.43,-0.39,-0.355,-0.335,-0.335,-0.345,-0.345,-0.335,-0.3,-0.285,-0.265,-0.275,-0.29,-0.285,-0.28,-0.265,-0.245,-0.25,-0.265,-0.285,-0.275,-0.27,-0.25,-0.265,-0.26,-0.26,-0.255,-0.255,-0.25,-0.26,-0.26,-0.26,-0.255,-0.225,-0.245,-0.255,-0.26,-0.25,-0.24,-0.225,-0.23,-0.235,-0.26,-0.28,-0.26,-0.235,-0.245,-0.255,-0.26,-0.285,-0.275,-0.245,-0.23,-0.24,-0.265,-0.255,-0.25,-0.225,-0.225,-0.245,-0.26,-0.265,-0.255,-0.24,-0.245,-0.255,-0.27,-0.265,-0.25,-0.22,-0.23,-0.245,-0.275,-0.275,-0.26,-0.245,-0.25,-0.255,-0.265,-0.28,-0.275,-0.245,-0.25,-0.25,-0.265,-0.27
1.0,214.0,-0.4,-0.415,-0.415,-0.405,-0.4,-0.42,-0.44,-0.455,-0.45,-0.435,-0.43,-0.445,-0.455,-0.47,-0.46,-0.445,-0.46,-0.465,-0.49,-0.47,-0.46,-0.47,-0.48,-0.495,-0.5,-0.515,-0.51,-0.495,-0.505,-0.53,-0.56,-0.55,-0.535,-0.52,-0.515,-0.525,-0.555,-0.57,-0.575,-0.555,-0.565,-0.575,-0.59,-0.59,-0.595,-0.585,-0.595,-0.615,-0.605,-0.605,-0.595,-0.58,-0.605,-0.595,-0.615,-0.585,-0.565,-0.53,-0.515,-0.52,-0.525,-0.51,-0.475,-0.425,-0.405,-0.375,-0.375,-0.35,-0.33,-0.3,-0.285,-0.265,-0.255,-0.25,-0.245,-0.21,-0.205,-0.215,-0.21,-0.195,-0.18,-0.165,-0.185,-0.19,-0.195,-0.2,-0.175,-0.175,-0.185,-0.185,-0.195,-0.185,-0.145,-0.095,-0.075,-0.04,0.01,0.08,0.185,0.31,0.415,0.52,0.6,0.71,0.83,0.935,1.05,1.135,1.205,1.28,1.355,1.395,1.405,1.37,1.29,1.14,0.915,0.675,0.41,0.14,-0.135,-0.41,-0.68,-0.93,-1.145,-1.335,-1.485,-1.605,-1.705,-1.765,-1.84,-1.91,-1.96,-1.985,-2.01,-1.975,-1.985,-1.99,-2.0,-2.02,-1.99,-1.955,-1.88,-1.755,-1.595,-1.415,-1.235,-1.115,-1.0,-0.93,-0.865,-0.835,-0.79,-0.745,-0.73,-0.73,-0.72,-0.7,-0.625,-0.555,-0.505,-0.445,-0.41,-0.36,-0.32,-0.255,-0.22,-0.185,-0.17,-0.14,-0.075,-0.04,-0.03,-0.02,-0.02,-0.005,0.015,0.035,0.05,0.035,0.035,0.065,0.125,0.185,0.21,0.22,0.205,0.235,0.28,0.34,0.365,0.36,0.375,0.385,0.425,0.46,0.495,0.495,0.515,0.55,0.595,0.63,0.665,0.675,0.69,0.74,0.79,0.82,0.845,0.87,0.89,0.905,0.95,0.99,1.02,1.02,1.015,1.025,1.06,1.08,1.1,1.105,1.095,1.095,1.1,1.11,1.095,1.075,1.05,1.02,0.985,0.99,0.95,0.935,0.915,0.885,0.87,0.825,0.765,0.7,0.65,0.615,0.59,0.555,0.49,0.435,0.37,0.33,0.315,0.3,0.255,0.215,0.16,0.13,0.11,0.09,0.075,0.035,0.0,-0.035,-0.06,-0.08,-0.09,-0.13,-0.15,-0.16,-0.175,-0.165,-0.18,-0.205,-0.245,-0.255,-0.25,-0.235,-0.235,-0.25,-0.26,-0.295,-0.275,-0.275,-0.27,-0.285,-0.285,-0.315,-0.31,-0.295,-0.31,-0.305,-0.315,-0.33,-0.31,-0.315,-0.33,-0.35,-0.365,-0.36,-0.345,-0.345,-0.35,-0.365
1.0,214.0,-0.3,-0.325,-0.355,-0.35,-0.35,-0.335,-0.335,-0.35,-0.38,-0.38,-0.36,-0.36,-0.35,-0.36,-0.385,-0.385,-0.39,-0.38,-0.39,-0.38,-0.395,-0.395,-0.4,-0.38,-0.4,-0.42,-0.43,-0.43,-0.43,-0.42,-0.415,-0.42,-0.47,-0.455,-0.45,-0.445,-0.465,-0.485,-0.51,-0.52,-0.52,-0.51,-0.49,-0.51,-0.52,-0.535,-0.545,-0.52,-0.525,-0.53,-0.53,-0.535,-0.54,-0.52,-0.53,-0.54,-0.57,-0.545,-0.525,-0.52,-0.51,-0.52,-0.53,-0.515,-0.49,-0.48,-0.44,-0.41,-0.405,-0.39,-0.35,-0.305,-0.27,-0.27,-0.24,-0.22,-0.195,-0.175,-0.17,-0.16,-0.145,-0.12,-0.105,-0.095,-0.09,-0.1,-0.11,-0.11,-0.09,-0.07,-0.085,-0.08,-0.1,-0.1,-0.1,-0.07,-0.05,-0.04,-0.035,-0.02,0.06,0.14,0.225,0.315,0.43,0.565,0.725,0.86,1.0,1.125,1.23,1.315,1.39,1.445,1.395,1.23,0.965,0.625,0.275,-0.025,-0.275,-0.505,-0.725,-0.92,-1.1,-1.265,-1.44,-1.615,-1.75,-1.835,-1.88,-1.895,-1.935,-1.94,-1.985,-2.005,-2.015,-1.975,-1.965,-1.955,-1.93,-1.885,-1.805,-1.685,-1.56,-1.4,-1.23,-1.085,-0.915,-0.825,-0.745,-0.685,-0.65,-0.615,-0.58,-0.51,-0.465,-0.42,-0.37,-0.315,-0.245,-0.205,-0.15,-0.145,-0.125,-0.07,-0.01,0.07,0.135,0.14,0.165,0.185,0.21,0.25,0.25,0.26,0.29,0.3,0.345,0.405,0.435,0.475,0.505,0.535,0.575,0.635,0.67,0.705,0.725,0.755,0.8,0.835,0.89,0.92,0.94,0.97,1.005,1.025,1.05,1.055,1.075,1.125,1.145,1.205,1.215,1.235,1.245,1.255,1.29,1.295,1.315,1.305,1.29,1.285,1.305,1.31,1.29,1.28,1.225,1.205,1.19,1.165,1.125,1.07,1.035,0.98,0.92,0.905,0.855,0.795,0.76,0.7,0.665,0.65,0.62,0.57,0.52,0.46,0.425,0.39,0.345,0.305,0.255,0.215,0.19,0.17,0.135,0.1,0.07,0.065,0.055,0.05,0.02,0.005,-0.005,-0.025,-0.02,-0.02,-0.035,-0.04,-0.07,-0.08,-0.065,-0.05,-0.055,-0.06,-0.09,-0.1,-0.095,-0.085,-0.08,-0.085,-0.1,-0.1,-0.1,-0.1,-0.115,-0.125,-0.14,-0.13,-0.12,-0.115,-0.135,-0.15,-0.16,-0.175,-0.15,-0.135,-0.135,-0.15,-0.17,-0.175,-0.17,-0.165,-0.155,-0.165,-0.185,-0.19,-0.19,-0.175
1.0,214.0,-0.28,-0.31,-0.315,-0.335,-0.35,-0.38,-0.39,-0.39,-0.375,-0.375,-0.41,-0.425,-0.445,-0.435,-0.43,-0.425,-0.45,-0.465,-0.475,-0.465,-0.435,-0.425,-0.45,-0.48,-0.5,-0.51,-0.505,-0.495,-0.5,-0.525,-0.535,-0.53,-0.53,-0.54,-0.54,-0.565,-0.59,-0.59,-0.605,-0.6,-0.6,-0.62,-0.63,-0.635,-0.635,-0.645,-0.67,-0.69,-0.7,-0.69,-0.69,-0.69,-0.72,-0.725,-0.725,-0.695,-0.675,-0.675,-0.685,-0.695,-0.67,-0.64,-0.605,-0.565,-0.565,-0.54,-0.525,-0.48,-0.435,-0.405,-0.4,-0.38,-0.385,-0.355,-0.325,-0.285,-0.275,-0.265,-0.275,-0.27,-0.23,-0.205,-0.205,-0.215,-0.24,-0.225,-0.22,-0.205,-0.205,-0.22,-0.22,-0.215,-0.22,-0.195,-0.195,-0.21,-0.21,-0.17,-0.12,-0.065,-0.005,0.07,0.155,0.27,0.335,0.43,0.515,0.61,0.745,0.87,1.0,1.08,1.135,1.125,1.09,0.935,0.705,0.39,0.045,-0.275,-0.545,-0.765,-0.945,-1.1,-1.21,-1.325,-1.435,-1.53,-1.605,-1.71,-1.805,-1.88,-1.935,-1.975,-2.0,-2.03,-2.03,-2.025,-1.98,-1.915,-1.81,-1.675,-1.52,-1.35,-1.225,-1.1,-1.02,-0.975,-0.935,-0.92,-0.875,-0.825,-0.775,-0.715,-0.655,-0.605,-0.545,-0.48,-0.415,-0.375,-0.36,-0.335,-0.285,-0.22,-0.165,-0.105,-0.08,-0.075,-0.06,-0.045,-0.015,0.015,0.04,0.065,0.07,0.09,0.125,0.145,0.17,0.2,0.2,0.25,0.28,0.315,0.33,0.36,0.37,0.405,0.45,0.475,0.505,0.52,0.545,0.57,0.625,0.655,0.655,0.675,0.685,0.715,0.755,0.78,0.81,0.835,0.845,0.86,0.905,0.94,0.94,0.94,0.96,0.975,0.99,0.985,0.975,0.95,0.95,0.965,0.96,0.93,0.91,0.885,0.86,0.83,0.805,0.785,0.745,0.71,0.7,0.67,0.65,0.61,0.57,0.52,0.47,0.435,0.41,0.38,0.34,0.28,0.22,0.175,0.165,0.15,0.11,0.065,0.03,-0.005,-0.01,-0.005,-0.035,-0.045,-0.07,-0.08,-0.105,-0.1,-0.115,-0.145,-0.15,-0.14,-0.15,-0.155,-0.185,-0.22,-0.21,-0.195,-0.175,-0.195,-0.2,-0.21,-0.195,-0.165,-0.1,-0.04,0.015,0.07,0.125,0.215,0.285,0.325,0.365,0.36,0.365,0.365,0.33,0.3,0.245,0.195,0.11,-0.105,-0.475,-0.905,-1.3,-1.605,-1.805,-1.94,-2.035,-2.11,-2.175,-2.225
1.0,214.0,0.04,0.065,0.07,0.09,0.125,0.145,0.17,0.2,0.2,0.25,0.28,0.315,0.33,0.36,0.37,0.405,0.45,0.475,0.505,0.52,0.545,0.57,0.625,0.655,0.655,0.675,0.685,0.715,0.755,0.78,0.81,0.835,0.845,0.86,0.905,0.94,0.94,0.94,0.96,0.975,0.99,0.985,0.975,0.95,0.95,0.965,0.96,0.93,0.91,0.885,0.86,0.83,0.805,0.785,0.745,0.71,0.7,0.67,0.65,0.61,0.57,0.52,0.47,0.435,0.41,0.38,0.34,0.28,0.22,0.175,0.165,0.15,0.11,0.065,0.03,-0.005,-0.01,-0.005,-0.035,-0.045,-0.07,-0.08,-0.105,-0.1,-0.115,-0.145,-0.15,-0.14,-0.15,-0.155,-0.185,-0.22,-0.21,-0.195,-0.175,-0.195,-0.2,-0.21,-0.195,-0.165,-0.1,-0.04,0.015,0.07,0.125,0.215,0.285,0.325,0.365,0.36,0.365,0.365,0.33,0.3,0.245,0.195,0.11,-0.105,-0.475,-0.905,-1.3,-1.605,-1.805,-1.94,-2.035,-2.11,-2.175,-2.225,-2.235,-2.205,-2.165,-2.145,-2.14,-2.145,-2.14,-2.095,-2.005,-1.9,-1.835,-1.785,-1.73,-1.645,-1.575,-1.505,-1.435,-1.39,-1.335,-1.24,-1.145,-1.075,-1.035,-1.015,-0.97,-0.92,-0.835,-0.75,-0.665,-0.6,-0.52,-0.405,-0.31,-0.205,-0.15,-0.125,-0.085,-0.025,0.025,0.045,0.055,0.065,0.095,0.15,0.2,0.24,0.25,0.26,0.28,0.35,0.415,0.475,0.49,0.505,0.535,0.58,0.635,0.675,0.7,0.7,0.74,0.78,0.82,0.875,0.92,0.96,0.995,1.03,1.085,1.135,1.18,1.215,1.24,1.29,1.325,1.38,1.405,1.42,1.455,1.465,1.495,1.51,1.5,1.485,1.47,1.48,1.475,1.465,1.44,1.395,1.35,1.335,1.33,1.29,1.245,1.2,1.13,1.11,1.075,1.055,0.995,0.935,0.865,0.815,0.76,0.71,0.64,0.58,0.53,0.485,0.45,0.405,0.35,0.28,0.25,0.215,0.2,0.18,0.16,0.1,0.06,0.025,0.01,-0.01,-0.04,-0.07,-0.09,-0.1,-0.11,-0.115,-0.12,-0.155,-0.19,-0.175,-0.185,-0.18,-0.2,-0.205,-0.215,-0.21,-0.215,-0.22,-0.24,-0.245,-0.25,-0.255,-0.235,-0.24,-0.265,-0.28,-0.29,-0.275,-0.255,-0.245,-0.275,-0.285,-0.305,-0.3,-0.29,-0.29,-0.3,-0.315,-0.32,-0.33,-0.315,-0.305,-0.32,-0.32,-0.34,-0.34,-0.335,-0.33
1.0,214.0,-0.38,-0.385,-0.395,-0.41,-0.39,-0.39,-0.385,-0.4,-0.405,-0.42,-0.42,-0.415,-0.395,-0.395,-0.4,-0.425,-0.43,-0.42,-0.4,-0.41,-0.405,-0.425,-0.42,-0.425,-0.415,-0.42,-0.435,-0.43,-0.435,-0.415,-0.415,-0.43,-0.445,-0.46,-0.45,-0.425,-0.435,-0.445,-0.455,-0.46,-0.465,-0.44,-0.435,-0.435,-0.445,-0.46,-0.46,-0.455,-0.445,-0.435,-0.445,-0.465,-0.445,-0.44,-0.415,-0.41,-0.415,-0.43,-0.425,-0.41,-0.395,-0.375,-0.38,-0.38,-0.37,-0.33,-0.305,-0.285,-0.29,-0.28,-0.265,-0.26,-0.225,-0.215,-0.22,-0.21,-0.215,-0.19,-0.18,-0.19,-0.2,-0.22,-0.21,-0.185,-0.16,-0.165,-0.195,-0.205,-0.205,-0.185,-0.165,-0.165,-0.17,-0.19,-0.175,-0.155,-0.115,-0.065,-0.02,0.055,0.12,0.225,0.325,0.4,0.47,0.54,0.61,0.72,0.825,0.92,0.985,1.02,1.06,1.05,0.995,0.83,0.565,0.25,-0.08,-0.37,-0.675,-0.925,-1.13,-1.275,-1.38,-1.46,-1.535,-1.615,-1.71,-1.78,-1.835,-1.83,-1.835,-1.835,-1.84,-1.865,-1.875,-1.865,-1.845,-1.835,-1.82,-1.8,-1.76,-1.695,-1.61,-1.54,-1.465,-1.4,-1.315,-1.205,-1.09,-0.995,-0.905,-0.845,-0.8,-0.74,-0.71,-0.69,-0.67,-0.655,-0.625,-0.58,-0.5,-0.45,-0.395,-0.335,-0.27,-0.24,-0.195,-0.175,-0.155,-0.14,-0.095,-0.045,-0.005,0.02,0.015,0.005,0.02,0.04,0.07,0.06,0.08,0.085,0.125,0.16,0.2,0.23,0.23,0.25,0.27,0.305,0.34,0.345,0.365,0.38,0.405,0.44,0.49,0.51,0.525,0.53,0.56,0.595,0.645,0.67,0.67,0.68,0.695,0.725,0.745,0.78,0.78,0.785,0.815,0.855,0.88,0.895,0.91,0.905,0.93,0.945,0.98,1.01,0.995,0.99,0.99,1.015,1.025,1.03,1.02,1.01,1.01,1.025,1.015,0.97,0.955,0.92,0.88,0.865,0.865,0.82,0.755,0.72,0.68,0.665,0.64,0.595,0.55,0.505,0.475,0.445,0.43,0.39,0.345,0.29,0.25,0.215,0.18,0.155,0.115,0.07,0.04,0.025,0.02,-0.005,-0.035,-0.055,-0.075,-0.065,-0.065,-0.08,-0.115,-0.14,-0.145,-0.14,-0.125,-0.145,-0.165,-0.195,-0.19,-0.185,-0.17,-0.17,-0.18,-0.205,-0.205,-0.19,-0.19,-0.19,-0.215,-0.22,-0.235,-0.21,-0.205,-0.205,-0.215,-0.24,-0.255,-0.225
1.0,214.0,0.09,0.045,0.005,-0.015,-0.035,-0.055,-0.095,-0.155,-0.21,-0.24,-0.25,-0.25,-0.27,-0.315,-0.345,-0.34,-0.32,-0.315,-0.33,-0.355,-0.36,-0.35,-0.36,-0.34,-0.35,-0.35,-0.355,-0.355,-0.34,-0.34,-0.355,-0.37,-0.38,-0.37,-0.345,-0.33,-0.335,-0.35,-0.365,-0.39,-0.37,-0.345,-0.345,-0.37,-0.39,-0.395,-0.38,-0.38,-0.37,-0.38,-0.4,-0.41,-0.395,-0.405,-0.39,-0.41,-0.405,-0.405,-0.41,-0.395,-0.395,-0.405,-0.415,-0.42,-0.415,-0.4,-0.395,-0.415,-0.41,-0.4,-0.37,-0.35,-0.345,-0.34,-0.325,-0.295,-0.285,-0.255,-0.255,-0.24,-0.245,-0.22,-0.18,-0.16,-0.16,-0.17,-0.175,-0.165,-0.145,-0.14,-0.13,-0.14,-0.155,-0.145,-0.14,-0.115,-0.13,-0.125,-0.125,-0.075,-0.02,0.07,0.18,0.285,0.4,0.535,0.685,0.815,0.915,0.99,1.05,1.115,1.16,1.195,1.145,0.96,0.625,0.24,-0.155,-0.535,-0.885,-1.15,-1.33,-1.455,-1.545,-1.62,-1.705,-1.74,-1.77,-1.765,-1.72,-1.705,-1.705,-1.665,-1.61,-1.525,-1.415,-1.26,-1.105,-0.97,-0.885,-0.825,-0.77,-0.69,-0.665,-0.655,-0.65,-0.635,-0.605,-0.56,-0.5,-0.46,-0.4,-0.32,-0.26,-0.215,-0.18,-0.17,-0.135,-0.105,-0.065,-0.02,-0.01,-0.02,-0.005,0.02,0.04,0.075,0.07,0.07,0.09,0.115,0.155,0.215,0.25,0.26,0.265,0.305,0.325,0.365,0.39,0.41,0.425,0.455,0.485,0.54,0.555,0.575,0.605,0.63,0.655,0.68,0.715,0.73,0.75,0.79,0.845,0.875,0.885,0.905,0.905,0.94,0.99,0.995,1.01,0.995,0.995,0.985,1.015,1.02,0.995,0.975,0.945,0.935,0.92,0.915,0.895,0.855,0.81,0.78,0.765,0.755,0.72,0.67,0.64,0.595,0.55,0.54,0.495,0.45,0.4,0.36,0.325,0.285,0.26,0.21,0.185,0.15,0.155,0.15,0.12,0.07,0.03,0.0,-0.005,0.005,-0.01,-0.025,-0.065,-0.085,-0.09,-0.08,-0.085,-0.095,-0.11,-0.12,-0.115,-0.12,-0.115,-0.14,-0.17,-0.145,-0.145,-0.135,-0.145,-0.17,-0.19,-0.19,-0.165,-0.16,-0.165,-0.18,-0.2,-0.215,-0.195,-0.18,-0.185,-0.2,-0.215,-0.225,-0.23,-0.21,-0.215,-0.21,-0.245,-0.24,-0.235,-0.215,-0.23,-0.24,-0.25,-0.25,-0.24,-0.235,-0.24,-0.26,-0.27,-0.27,-0.255,-0.23
1.0,214.0,-0.33,-0.335,-0.335,-0.36,-0.37,-0.37,-0.36,-0.345,-0.36,-0.375,-0.365,-0.365,-0.35,-0.355,-0.355,-0.375,-0.39,-0.39,-0.385,-0.38,-0.38,-0.38,-0.405,-0.4,-0.39,-0.37,-0.375,-0.38,-0.4,-0.42,-0.395,-0.39,-0.395,-0.395,-0.42,-0.415,-0.41,-0.41,-0.41,-0.425,-0.435,-0.425,-0.44,-0.415,-0.41,-0.425,-0.45,-0.455,-0.44,-0.415,-0.42,-0.42,-0.435,-0.435,-0.425,-0.41,-0.405,-0.405,-0.41,-0.425,-0.395,-0.39,-0.37,-0.39,-0.37,-0.365,-0.335,-0.31,-0.3,-0.3,-0.295,-0.275,-0.255,-0.22,-0.2,-0.205,-0.215,-0.21,-0.19,-0.185,-0.17,-0.18,-0.185,-0.19,-0.185,-0.16,-0.17,-0.175,-0.16,-0.155,-0.145,-0.15,-0.16,-0.16,-0.15,-0.11,-0.05,-0.01,0.035,0.09,0.14,0.22,0.325,0.445,0.555,0.665,0.725,0.82,0.915,1.01,1.085,1.12,1.13,1.125,1.06,0.935,0.72,0.455,0.22,-0.02,-0.27,-0.52,-0.765,-1.0,-1.195,-1.325,-1.445,-1.545,-1.655,-1.745,-1.8,-1.805,-1.815,-1.81,-1.815,-1.84,-1.86,-1.87,-1.855,-1.825,-1.805,-1.79,-1.77,-1.745,-1.645,-1.51,-1.365,-1.235,-1.115,-1.025,-0.905,-0.81,-0.75,-0.72,-0.705,-0.68,-0.66,-0.65,-0.635,-0.61,-0.59,-0.53,-0.47,-0.405,-0.345,-0.305,-0.275,-0.225,-0.175,-0.125,-0.085,-0.065,-0.065,-0.05,-0.02,0.015,0.04,0.05,0.05,0.05,0.055,0.095,0.15,0.18,0.19,0.215,0.255,0.285,0.3,0.31,0.325,0.355,0.385,0.42,0.45,0.455,0.45,0.485,0.515,0.56,0.6,0.6,0.61,0.655,0.675,0.7,0.755,0.765,0.775,0.785,0.83,0.865,0.88,0.895,0.89,0.91,0.94,0.975,0.985,0.995,0.985,1.0,1.015,1.04,1.05,1.045,1.03,1.02,1.025,1.02,1.005,0.98,0.93,0.905,0.88,0.87,0.825,0.775,0.735,0.69,0.675,0.62,0.58,0.525,0.5,0.46,0.435,0.42,0.38,0.32,0.265,0.225,0.205,0.19,0.155,0.11,0.07,0.035,0.015,0.015,0.0,-0.015,-0.055,-0.08,-0.08,-0.07,-0.085,-0.11,-0.13,-0.145,-0.15,-0.155,-0.155,-0.18,-0.2,-0.195,-0.18,-0.175,-0.19,-0.2,-0.22,-0.24,-0.22,-0.195,-0.2,-0.215,-0.23,-0.23,-0.235,-0.22,-0.22,-0.24,-0.255,-0.275,-0.255,-0.245,-0.255,-0.275,-0.28,-0.285
1.0,214.0,-0.29,-0.305,-0.305,-0.3,-0.285,-0.29,-0.28,-0.3,-0.32,-0.305,-0.305,-0.305,-0.3,-0.33,-0.32,-0.335,-0.325,-0.315,-0.32,-0.335,-0.34,-0.335,-0.325,-0.315,-0.33,-0.35,-0.37,-0.37,-0.35,-0.335,-0.36,-0.38,-0.395,-0.38,-0.39,-0.365,-0.385,-0.4,-0.395,-0.395,-0.395,-0.385,-0.39,-0.4,-0.405,-0.41,-0.39,-0.39,-0.405,-0.4,-0.395,-0.365,-0.335,-0.33,-0.33,-0.34,-0.33,-0.295,-0.265,-0.25,-0.23,-0.23,-0.21,-0.18,-0.16,-0.135,-0.13,-0.14,-0.12,-0.105,-0.085,-0.07,-0.075,-0.07,-0.065,-0.055,-0.045,-0.035,-0.05,-0.06,-0.06,-0.06,-0.045,-0.065,-0.06,-0.07,-0.075,-0.065,-0.04,-0.04,-0.04,-0.05,-0.055,-0.045,-0.025,0.005,0.025,0.06,0.11,0.165,0.235,0.305,0.4,0.51,0.645,0.785,0.93,1.085,1.19,1.285,1.365,1.445,1.51,1.515,1.45,1.31,1.08,0.8,0.485,0.155,-0.175,-0.465,-0.745,-0.95,-1.09,-1.225,-1.315,-1.415,-1.47,-1.505,-1.535,-1.575,-1.62,-1.655,-1.68,-1.67,-1.66,-1.665,-1.66,-1.67,-1.645,-1.57,-1.46,-1.31,-1.185,-1.085,-0.99,-0.9,-0.835,-0.79,-0.735,-0.685,-0.64,-0.59,-0.55,-0.55,-0.55,-0.545,-0.5,-0.435,-0.37,-0.325,-0.285,-0.265,-0.235,-0.195,-0.15,-0.13,-0.085,-0.06,-0.03,0.005,0.045,0.055,0.07,0.07,0.09,0.11,0.125,0.155,0.17,0.17,0.195,0.225,0.28,0.32,0.32,0.345,0.35,0.375,0.4,0.42,0.445,0.46,0.48,0.515,0.54,0.56,0.575,0.595,0.62,0.66,0.69,0.715,0.72,0.73,0.75,0.775,0.82,0.845,0.85,0.86,0.88,0.925,0.96,0.97,0.99,1.01,1.015,1.03,1.065,1.075,1.06,1.08,1.075,1.095,1.095,1.095,1.085,1.065,1.05,1.04,1.055,1.04,0.995,0.96,0.925,0.93,0.91,0.905,0.88,0.86,0.825,0.785,0.78,0.74,0.69,0.64,0.61,0.58,0.56,0.535,0.48,0.43,0.39,0.36,0.355,0.34,0.31,0.255,0.225,0.205,0.205,0.175,0.14,0.115,0.1,0.09,0.06,0.07,0.045,0.025,0.005,0.01,0.03,0.03,0.01,-0.015,-0.055,-0.04,-0.03,-0.025,-0.045,-0.05,-0.06,-0.055,-0.06,-0.05,-0.055,-0.075,-0.075,-0.075,-0.065,-0.065,-0.085,-0.105,-0.11,-0.1,-0.1,-0.08
1.0,214.0,-0.27,-0.285,-0.3,-0.31,-0.315,-0.3,-0.295,-0.315,-0.32,-0.355,-0.335,-0.305,-0.3,-0.335,-0.355,-0.375,-0.365,-0.36,-0.355,-0.37,-0.375,-0.395,-0.37,-0.37,-0.375,-0.375,-0.38,-0.38,-0.385,-0.365,-0.38,-0.37,-0.38,-0.385,-0.35,-0.325,-0.305,-0.31,-0.32,-0.33,-0.275,-0.245,-0.22,-0.205,-0.195,-0.19,-0.17,-0.15,-0.135,-0.135,-0.12,-0.105,-0.085,-0.06,-0.055,-0.07,-0.06,-0.075,-0.055,-0.05,-0.035,-0.045,-0.05,-0.065,-0.055,-0.04,-0.04,-0.055,-0.075,-0.08,-0.07,-0.055,-0.05,-0.05,-0.045,-0.075,-0.06,-0.055,-0.05,-0.065,-0.07,-0.075,-0.07,-0.07,-0.08,-0.08,-0.1,-0.095,-0.085,-0.085,-0.1,-0.13,-0.15,-0.185,-0.185,-0.19,-0.195,-0.19,-0.16,-0.135,-0.055,0.03,0.135,0.255,0.38,0.55,0.735,0.915,1.105,1.255,1.325,1.33,1.305,1.26,1.22,1.17,1.11,1.055,0.995,0.93,0.805,0.64,0.47,0.305,0.165,0.035,-0.065,-0.155,-0.22,-0.245,-0.245,-0.23,-0.205,-0.18,-0.185,-0.185,-0.205,-0.22,-0.215,-0.23,-0.25,-0.25,-0.235,-0.23,-0.23,-0.25,-0.265,-0.265,-0.27,-0.25,-0.235,-0.24,-0.24,-0.27,-0.27,-0.265,-0.24,-0.24,-0.23,-0.235,-0.22,-0.205,-0.185,-0.18,-0.2,-0.22,-0.195,-0.17,-0.18,-0.175,-0.185,-0.185,-0.17,-0.15,-0.145,-0.16,-0.175,-0.175,-0.16,-0.145,-0.125,-0.135,-0.16,-0.16,-0.15,-0.135,-0.105,-0.1,-0.11,-0.115,-0.09,-0.055,-0.06,-0.05,-0.03,-0.02,-0.01,0.03,0.05,0.04,0.05,0.055,0.085,0.115,0.145,0.145,0.14,0.16,0.19,0.22,0.24,0.23,0.23,0.23,0.215,0.245,0.25,0.255,0.23,0.195,0.195,0.195,0.2,0.185,0.145,0.13,0.125,0.115,0.09,0.08,0.05,0.025,0.015,0.02,-0.005,-0.005,-0.015,-0.035,-0.02,-0.005,-0.03,-0.035,-0.055,-0.07,-0.065,-0.045,-0.03,-0.055,-0.09,-0.075,-0.08,-0.075,-0.07,-0.065,-0.08,-0.095,-0.075,-0.075,-0.08,-0.1,-0.095,-0.105,-0.105,-0.095,-0.08,-0.085,-0.09,-0.09,-0.09,-0.09,-0.095,-0.095,-0.11,-0.115,-0.11,-0.095,-0.09,-0.1,-0.125,-0.115,-0.11,-0.11,-0.1,-0.105,-0.125,-0.13,-0.155,-0.115,-0.105,-0.13,-0.14,-0.135,-0.13,-0.125,-0.13,-0.13,-0.145,-0.16,-0.155,-0.14
1.0,214.0,-0.165,-0.195,-0.22,-0.2,-0.19,-0.19,-0.205,-0.23,-0.25,-0.235,-0.23,-0.23,-0.24,-0.275,-0.285,-0.27,-0.25,-0.24,-0.245,-0.27,-0.29,-0.29,-0.28,-0.27,-0.275,-0.29,-0.3,-0.295,-0.295,-0.285,-0.29,-0.315,-0.335,-0.34,-0.35,-0.35,-0.335,-0.36,-0.37,-0.365,-0.365,-0.36,-0.365,-0.395,-0.405,-0.4,-0.395,-0.395,-0.405,-0.425,-0.43,-0.435,-0.41,-0.405,-0.415,-0.425,-0.435,-0.42,-0.4,-0.395,-0.39,-0.395,-0.38,-0.38,-0.35,-0.335,-0.33,-0.325,-0.3,-0.265,-0.225,-0.215,-0.2,-0.195,-0.2,-0.16,-0.13,-0.1,-0.095,-0.1,-0.1,-0.08,-0.065,-0.05,-0.045,-0.055,-0.05,-0.045,-0.035,-0.035,-0.015,-0.025,-0.05,-0.07,-0.05,-0.02,-0.03,0.0,0.04,0.095,0.185,0.26,0.365,0.49,0.61,0.755,0.88,0.985,1.07,1.15,1.225,1.27,1.34,1.41,1.415,1.335,1.15,0.855,0.505,0.185,-0.135,-0.425,-0.685,-0.88,-0.995,-1.065,-1.135,-1.22,-1.265,-1.305,-1.335,-1.395,-1.455,-1.51,-1.52,-1.525,-1.55,-1.595,-1.595,-1.6,-1.555,-1.47,-1.335,-1.195,-1.06,-0.955,-0.87,-0.77,-0.685,-0.62,-0.56,-0.55,-0.545,-0.535,-0.51,-0.47,-0.435,-0.41,-0.38,-0.31,-0.26,-0.23,-0.2,-0.155,-0.115,-0.07,-0.03,-0.01,0.0,0.005,0.035,0.08,0.1,0.115,0.12,0.135,0.145,0.2,0.26,0.295,0.305,0.3,0.305,0.32,0.365,0.415,0.42,0.445,0.45,0.485,0.52,0.555,0.58,0.58,0.615,0.65,0.68,0.715,0.705,0.73,0.75,0.775,0.83,0.85,0.865,0.865,0.885,0.93,0.96,0.985,0.99,0.97,0.98,1.0,1.01,1.045,1.035,1.025,1.025,1.03,1.03,1.035,1.02,1.0,0.985,0.975,0.975,0.955,0.905,0.88,0.845,0.835,0.815,0.775,0.74,0.67,0.645,0.61,0.6,0.55,0.52,0.475,0.41,0.405,0.385,0.355,0.31,0.265,0.225,0.215,0.18,0.155,0.13,0.09,0.07,0.045,0.04,0.025,0.005,-0.02,-0.025,-0.025,-0.04,-0.04,-0.05,-0.075,-0.08,-0.08,-0.075,-0.08,-0.08,-0.105,-0.105,-0.1,-0.115,-0.095,-0.115,-0.135,-0.175,-0.14,-0.12,-0.115,-0.12,-0.14,-0.15,-0.15,-0.14,-0.14,-0.15,-0.155,-0.155,-0.16,-0.16,-0.155,-0.16,-0.175,-0.175,-0.175,-0.165,-0.17
1.0,214.0,-0.395,-0.4,-0.43,-0.465,-0.465,-0.455,-0.44,-0.44,-0.47,-0.49,-0.5,-0.48,-0.465,-0.475,-0.5,-0.515,-0.525,-0.52,-0.51,-0.505,-0.51,-0.535,-0.53,-0.505,-0.485,-0.475,-0.475,-0.47,-0.44,-0.41,-0.39,-0.38,-0.39,-0.37,-0.345,-0.305,-0.275,-0.255,-0.25,-0.25,-0.23,-0.19,-0.165,-0.145,-0.16,-0.16,-0.155,-0.13,-0.11,-0.105,-0.12,-0.115,-0.105,-0.105,-0.105,-0.095,-0.11,-0.125,-0.12,-0.115,-0.1,-0.115,-0.11,-0.13,-0.15,-0.15,-0.13,-0.105,-0.12,-0.13,-0.12,-0.135,-0.13,-0.14,-0.15,-0.145,-0.14,-0.125,-0.135,-0.125,-0.15,-0.165,-0.16,-0.14,-0.13,-0.14,-0.165,-0.17,-0.2,-0.18,-0.175,-0.2,-0.23,-0.25,-0.28,-0.295,-0.29,-0.265,-0.26,-0.185,-0.1,0.0,0.12,0.275,0.42,0.58,0.745,0.915,1.075,1.19,1.26,1.225,1.155,1.09,1.055,1.01,0.935,0.845,0.715,0.575,0.445,0.28,0.115,-0.08,-0.245,-0.36,-0.445,-0.53,-0.61,-0.645,-0.63,-0.615,-0.565,-0.565,-0.525,-0.49,-0.445,-0.375,-0.345,-0.325,-0.31,-0.325,-0.325,-0.315,-0.31,-0.3,-0.32,-0.305,-0.305,-0.28,-0.27,-0.255,-0.25,-0.255,-0.255,-0.235,-0.23,-0.24,-0.265,-0.27,-0.26,-0.235,-0.205,-0.195,-0.205,-0.205,-0.205,-0.19,-0.17,-0.175,-0.165,-0.16,-0.165,-0.15,-0.15,-0.16,-0.17,-0.18,-0.16,-0.135,-0.115,-0.12,-0.125,-0.14,-0.135,-0.11,-0.095,-0.1,-0.1,-0.105,-0.09,-0.075,-0.055,-0.035,-0.03,-0.035,-0.02,0.02,0.04,0.06,0.06,0.06,0.075,0.11,0.155,0.18,0.18,0.185,0.19,0.23,0.27,0.3,0.3,0.31,0.33,0.34,0.365,0.35,0.355,0.35,0.35,0.36,0.385,0.365,0.36,0.335,0.325,0.325,0.32,0.305,0.255,0.205,0.195,0.165,0.165,0.135,0.095,0.09,0.08,0.085,0.07,0.06,0.025,0.01,-0.01,-0.005,0.02,-0.015,-0.06,-0.08,-0.075,-0.06,-0.04,-0.045,-0.065,-0.075,-0.08,-0.08,-0.07,-0.095,-0.08,-0.1,-0.1,-0.095,-0.08,-0.095,-0.12,-0.125,-0.13,-0.12,-0.1,-0.1,-0.11,-0.14,-0.15,-0.135,-0.105,-0.11,-0.135,-0.135,-0.15,-0.145,-0.135,-0.165,-0.195,-0.25,-0.29,-0.29,-0.305,-0.33,-0.35,-0.375,-0.335,-0.26,-0.165,-0.05,0.06,0.165,0.275,0.355
1.0,214.0,-0.09,-0.075,-0.055,-0.035,-0.03,-0.035,-0.02,0.02,0.04,0.06,0.06,0.06,0.075,0.11,0.155,0.18,0.18,0.185,0.19,0.23,0.27,0.3,0.3,0.31,0.33,0.34,0.365,0.35,0.355,0.35,0.35,0.36,0.385,0.365,0.36,0.335,0.325,0.325,0.32,0.305,0.255,0.205,0.195,0.165,0.165,0.135,0.095,0.09,0.08,0.085,0.07,0.06,0.025,0.01,-0.01,-0.005,0.02,-0.015,-0.06,-0.08,-0.075,-0.06,-0.04,-0.045,-0.065,-0.075,-0.08,-0.08,-0.07,-0.095,-0.08,-0.1,-0.1,-0.095,-0.08,-0.095,-0.12,-0.125,-0.13,-0.12,-0.1,-0.1,-0.11,-0.14,-0.15,-0.135,-0.105,-0.11,-0.135,-0.135,-0.15,-0.145,-0.135,-0.165,-0.195,-0.25,-0.29,-0.29,-0.305,-0.33,-0.35,-0.375,-0.335,-0.26,-0.165,-0.05,0.06,0.165,0.275,0.355,0.435,0.44,0.41,0.38,0.295,0.16,0.0,-0.19,-0.38,-0.57,-0.785,-1.01,-1.21,-1.385,-1.455,-1.445,-1.4,-1.365,-1.39,-1.43,-1.455,-1.49,-1.5,-1.515,-1.53,-1.535,-1.535,-1.535,-1.48,-1.41,-1.335,-1.275,-1.235,-1.205,-1.13,-1.03,-0.925,-0.81,-0.705,-0.635,-0.575,-0.49,-0.395,-0.335,-0.31,-0.25,-0.205,-0.155,-0.115,-0.095,-0.1,-0.095,-0.08,-0.055,-0.015,0.01,0.015,0.025,0.04,0.065,0.085,0.105,0.125,0.13,0.15,0.185,0.2,0.215,0.205,0.2,0.215,0.24,0.28,0.305,0.305,0.3,0.305,0.35,0.355,0.38,0.395,0.405,0.435,0.465,0.485,0.51,0.505,0.515,0.555,0.595,0.63,0.65,0.65,0.655,0.695,0.715,0.765,0.805,0.825,0.82,0.855,0.895,0.94,0.96,0.995,1.03,1.04,1.09,1.135,1.15,1.155,1.155,1.165,1.175,1.205,1.215,1.215,1.21,1.21,1.215,1.215,1.195,1.17,1.14,1.12,1.1,1.085,1.04,1.0,0.945,0.905,0.885,0.87,0.82,0.785,0.735,0.695,0.665,0.635,0.585,0.505,0.435,0.39,0.355,0.33,0.275,0.23,0.185,0.15,0.125,0.13,0.085,0.04,-0.005,-0.005,0.0,0.005,-0.025,-0.045,-0.06,-0.06,-0.065,-0.05,-0.075,-0.09,-0.13,-0.145,-0.145,-0.135,-0.115,-0.145,-0.155,-0.17,-0.165,-0.15,-0.16,-0.165,-0.2,-0.19,-0.17,-0.16,-0.155,-0.155,-0.18,-0.19,-0.195,-0.18,-0.21,-0.205,-0.23
1.0,214.0,-0.545,-0.57,-0.595,-0.63,-0.645,-0.625,-0.625,-0.64,-0.645,-0.645,-0.615,-0.59,-0.61,-0.61,-0.625,-0.62,-0.6,-0.575,-0.52,-0.52,-0.54,-0.565,-0.59,-0.585,-0.565,-0.53,-0.495,-0.465,-0.42,-0.39,-0.365,-0.375,-0.385,-0.435,-0.47,-0.45,-0.435,-0.395,-0.38,-0.37,-0.35,-0.325,-0.315,-0.32,-0.345,-0.355,-0.35,-0.345,-0.315,-0.305,-0.285,-0.26,-0.245,-0.25,-0.27,-0.285,-0.29,-0.325,-0.34,-0.35,-0.35,-0.36,-0.345,-0.35,-0.32,-0.285,-0.265,-0.28,-0.33,-0.385,-0.41,-0.375,-0.35,-0.365,-0.375,-0.37,-0.335,-0.31,-0.29,-0.34,-0.445,-0.525,-0.57,-0.58,-0.54,-0.505,-0.505,-0.5,-0.45,-0.4,-0.385,-0.43,-0.505,-0.52,-0.47,-0.395,-0.37,-0.415,-0.46,-0.46,-0.43,-0.395,-0.37,-0.355,-0.375,-0.405,-0.47,-0.54,-0.605,-0.65,-0.665,-0.67,-0.645,-0.625,-0.595,-0.59,-0.595,-0.57,-0.52,-0.44,-0.385,-0.345,-0.31,-0.3,-0.28,-0.255,-0.225,-0.24,-0.255,-0.315,-0.365,-0.355,-0.31,-0.245,-0.195,-0.17,-0.195,-0.22,-0.25,-0.26,-0.225,-0.195,-0.165,-0.16,-0.175,-0.195,-0.22,-0.21,-0.195,-0.145,-0.095,-0.065,-0.07,-0.085,-0.075,-0.045,-0.035,-0.01,0.015,0.05,0.09,0.135,0.16,0.15,0.085,0.03,0.03,0.075,0.14,0.185,0.265,0.36,0.425,0.43,0.405,0.395,0.39,0.405,0.44,0.465,0.475,0.48,0.495,0.515,0.535,0.535,0.57,0.585,0.56,0.555,0.545,0.57,0.575,0.57,0.505,0.41,0.36,0.37,0.415,0.4,0.34,0.23,0.125,0.09,0.08,0.07,0.045,0.015,-0.015,-0.03,-0.015,0.01,0.025,-0.02,-0.095,-0.165,-0.235,-0.285,-0.29,-0.245,-0.215,-0.2,-0.215,-0.26,-0.295,-0.335,-0.315,-0.27,-0.235,-0.215,-0.22,-0.225,-0.255,-0.32,-0.38,-0.37,-0.37,-0.355,-0.35,-0.325,-0.28,-0.29,-0.29,-0.335,-0.375,-0.365,-0.37,-0.335,-0.295,-0.29,-0.275,-0.275,-0.32,-0.375,-0.4,-0.42,-0.41,-0.365,-0.3,-0.255,-0.25,-0.285,-0.335,-0.37,-0.4,-0.415,-0.405,-0.385,-0.36,-0.34,-0.31,-0.335,-0.375,-0.395,-0.415,-0.425,-0.43,-0.43,-0.445,-0.445,-0.415,-0.405,-0.38,-0.38,-0.4,-0.42,-0.43,-0.42,-0.365,-0.34,-0.34,-0.365,-0.4,-0.405,-0.41,-0.435,-0.44,-0.42,-0.385,-0.365
1.0,214.0,-0.315,-0.33,-0.325,-0.305,-0.315,-0.33,-0.355,-0.375,-0.365,-0.345,-0.33,-0.365,-0.385,-0.4,-0.4,-0.375,-0.38,-0.385,-0.41,-0.41,-0.405,-0.41,-0.4,-0.42,-0.435,-0.475,-0.47,-0.46,-0.45,-0.46,-0.48,-0.49,-0.49,-0.49,-0.5,-0.52,-0.535,-0.54,-0.53,-0.54,-0.545,-0.57,-0.6,-0.61,-0.59,-0.595,-0.6,-0.6,-0.625,-0.605,-0.59,-0.565,-0.555,-0.565,-0.575,-0.555,-0.52,-0.485,-0.455,-0.435,-0.435,-0.41,-0.39,-0.335,-0.3,-0.295,-0.275,-0.26,-0.25,-0.215,-0.175,-0.165,-0.165,-0.16,-0.155,-0.14,-0.13,-0.125,-0.12,-0.12,-0.125,-0.105,-0.115,-0.145,-0.145,-0.135,-0.115,-0.1,-0.11,-0.11,-0.145,-0.145,-0.125,-0.1,-0.08,-0.075,-0.06,-0.04,0.02,0.12,0.205,0.32,0.425,0.535,0.66,0.77,0.9,0.985,1.08,1.14,1.195,1.22,1.25,1.25,1.215,1.125,0.95,0.69,0.385,0.045,-0.26,-0.55,-0.795,-0.99,-1.14,-1.275,-1.36,-1.46,-1.52,-1.575,-1.615,-1.68,-1.74,-1.795,-1.83,-1.845,-1.865,-1.9,-1.91,-1.895,-1.86,-1.745,-1.605,-1.465,-1.345,-1.265,-1.17,-1.085,-1.01,-0.94,-0.88,-0.85,-0.805,-0.74,-0.69,-0.65,-0.61,-0.555,-0.49,-0.405,-0.34,-0.305,-0.27,-0.215,-0.17,-0.14,-0.11,-0.095,-0.06,-0.01,0.045,0.07,0.1,0.115,0.11,0.135,0.17,0.22,0.24,0.27,0.29,0.315,0.35,0.41,0.42,0.435,0.435,0.45,0.49,0.54,0.58,0.605,0.62,0.635,0.665,0.715,0.74,0.775,0.795,0.815,0.84,0.875,0.885,0.895,0.91,0.925,0.965,0.99,1.035,1.035,1.035,1.05,1.08,1.095,1.12,1.12,1.11,1.115,1.115,1.13,1.15,1.135,1.1,1.075,1.07,1.05,1.015,0.985,0.94,0.925,0.905,0.89,0.865,0.825,0.79,0.75,0.73,0.7,0.67,0.63,0.585,0.55,0.535,0.52,0.5,0.465,0.43,0.385,0.345,0.31,0.28,0.235,0.2,0.165,0.155,0.145,0.125,0.095,0.07,0.035,0.035,0.035,0.03,-0.005,-0.035,-0.075,-0.06,-0.065,-0.06,-0.07,-0.085,-0.105,-0.115,-0.11,-0.105,-0.12,-0.14,-0.14,-0.145,-0.135,-0.125,-0.15,-0.165,-0.175,-0.165,-0.145,-0.14,-0.15,-0.19,-0.21,-0.205,-0.18,-0.175,-0.18,-0.195,-0.205,-0.19,-0.205,-0.21,-0.215
1.0,214.0,-0.315,-0.34,-0.345,-0.35,-0.355,-0.36,-0.375,-0.375,-0.375,-0.37,-0.36,-0.385,-0.395,-0.41,-0.42,-0.4,-0.4,-0.415,-0.425,-0.44,-0.435,-0.42,-0.42,-0.43,-0.45,-0.47,-0.47,-0.46,-0.445,-0.45,-0.46,-0.475,-0.475,-0.48,-0.485,-0.49,-0.51,-0.515,-0.525,-0.525,-0.545,-0.55,-0.585,-0.575,-0.575,-0.575,-0.58,-0.59,-0.615,-0.63,-0.62,-0.605,-0.6,-0.62,-0.635,-0.645,-0.645,-0.63,-0.61,-0.605,-0.615,-0.61,-0.585,-0.555,-0.525,-0.51,-0.515,-0.5,-0.475,-0.455,-0.415,-0.375,-0.355,-0.34,-0.315,-0.285,-0.25,-0.24,-0.24,-0.235,-0.22,-0.2,-0.185,-0.19,-0.2,-0.205,-0.18,-0.17,-0.15,-0.16,-0.175,-0.185,-0.175,-0.14,-0.13,-0.135,-0.145,-0.125,-0.07,0.005,0.115,0.18,0.275,0.37,0.46,0.57,0.65,0.74,0.845,0.945,1.05,1.135,1.185,1.215,1.16,1.01,0.72,0.355,0.015,-0.305,-0.58,-0.82,-1.0,-1.145,-1.265,-1.375,-1.455,-1.52,-1.585,-1.64,-1.71,-1.77,-1.84,-1.885,-1.91,-1.9,-1.915,-1.935,-1.96,-1.96,-1.945,-1.875,-1.765,-1.665,-1.53,-1.42,-1.3,-1.175,-1.07,-0.995,-0.94,-0.885,-0.815,-0.76,-0.705,-0.685,-0.66,-0.605,-0.535,-0.46,-0.395,-0.355,-0.33,-0.305,-0.27,-0.23,-0.205,-0.17,-0.155,-0.095,-0.06,-0.015,0.025,0.045,0.045,0.065,0.095,0.13,0.165,0.18,0.195,0.215,0.265,0.3,0.34,0.36,0.375,0.375,0.395,0.41,0.45,0.495,0.515,0.535,0.565,0.605,0.65,0.65,0.67,0.7,0.745,0.76,0.805,0.815,0.84,0.87,0.925,0.955,0.975,0.975,0.985,0.97,1.005,1.035,1.075,1.08,1.075,1.07,1.07,1.09,1.095,1.105,1.09,1.07,1.07,1.07,1.065,1.04,1.02,1.005,0.98,0.96,0.935,0.885,0.835,0.79,0.755,0.725,0.7,0.645,0.605,0.555,0.53,0.5,0.455,0.405,0.35,0.315,0.29,0.26,0.255,0.22,0.165,0.135,0.11,0.075,0.04,0.015,-0.015,-0.035,-0.045,-0.055,-0.07,-0.1,-0.115,-0.13,-0.13,-0.11,-0.125,-0.15,-0.175,-0.185,-0.18,-0.155,-0.165,-0.18,-0.2,-0.22,-0.22,-0.205,-0.19,-0.19,-0.205,-0.215,-0.23,-0.225,-0.215,-0.23,-0.22,-0.23,-0.235,-0.23,-0.225,-0.24,-0.255,-0.27,-0.255,-0.235,-0.25,-0.265
1.0,214.0,-0.26,-0.265,-0.305,-0.31,-0.355,-0.4,-0.395,-0.385,-0.385,-0.39,-0.415,-0.42,-0.425,-0.42,-0.415,-0.44,-0.44,-0.45,-0.43,-0.44,-0.435,-0.455,-0.465,-0.47,-0.46,-0.46,-0.47,-0.485,-0.495,-0.505,-0.49,-0.475,-0.485,-0.5,-0.535,-0.55,-0.535,-0.535,-0.53,-0.565,-0.59,-0.615,-0.61,-0.59,-0.6,-0.62,-0.645,-0.65,-0.655,-0.67,-0.665,-0.685,-0.69,-0.7,-0.7,-0.69,-0.685,-0.675,-0.69,-0.69,-0.665,-0.65,-0.64,-0.635,-0.64,-0.615,-0.585,-0.545,-0.52,-0.505,-0.485,-0.47,-0.415,-0.385,-0.35,-0.34,-0.33,-0.315,-0.28,-0.245,-0.225,-0.22,-0.225,-0.23,-0.215,-0.195,-0.175,-0.155,-0.165,-0.175,-0.175,-0.17,-0.145,-0.145,-0.155,-0.165,-0.165,-0.135,-0.1,-0.06,-0.015,0.065,0.185,0.32,0.475,0.61,0.755,0.88,0.995,1.095,1.185,1.25,1.32,1.325,1.295,1.15,0.87,0.43,-0.03,-0.44,-0.755,-0.995,-1.18,-1.33,-1.445,-1.545,-1.605,-1.67,-1.76,-1.835,-1.925,-1.975,-1.99,-1.975,-1.98,-1.975,-2.005,-1.985,-1.925,-1.82,-1.665,-1.47,-1.31,-1.17,-1.07,-0.97,-0.885,-0.835,-0.805,-0.78,-0.745,-0.73,-0.71,-0.675,-0.64,-0.575,-0.475,-0.41,-0.35,-0.305,-0.265,-0.21,-0.16,-0.1,-0.05,-0.035,0.01,0.02,0.055,0.105,0.13,0.13,0.14,0.14,0.18,0.245,0.29,0.325,0.335,0.345,0.38,0.41,0.48,0.505,0.52,0.555,0.58,0.625,0.65,0.66,0.685,0.705,0.75,0.785,0.82,0.84,0.865,0.885,0.945,0.985,1.02,1.045,1.05,1.07,1.09,1.14,1.17,1.16,1.145,1.155,1.18,1.2,1.205,1.205,1.185,1.17,1.155,1.17,1.16,1.135,1.08,1.065,1.03,1.01,0.985,0.945,0.895,0.87,0.835,0.81,0.765,0.74,0.67,0.625,0.58,0.56,0.51,0.46,0.41,0.355,0.31,0.295,0.265,0.225,0.18,0.12,0.115,0.09,0.065,0.055,0.025,0.005,-0.005,-0.01,-0.035,-0.06,-0.085,-0.11,-0.1,-0.095,-0.12,-0.125,-0.13,-0.14,-0.13,-0.115,-0.115,-0.135,-0.165,-0.18,-0.16,-0.16,-0.145,-0.17,-0.18,-0.205,-0.19,-0.17,-0.16,-0.18,-0.21,-0.215,-0.205,-0.2,-0.19,-0.19,-0.215,-0.21,-0.215,-0.205,-0.205,-0.22,-0.22,-0.245,-0.23,-0.22,-0.23,-0.255,-0.245,-0.265
1.0,214.0,-0.495,-0.49,-0.495,-0.51,-0.515,-0.52,-0.53,-0.52,-0.52,-0.52,-0.53,-0.56,-0.58,-0.58,-0.565,-0.57,-0.575,-0.6,-0.62,-0.63,-0.61,-0.61,-0.615,-0.625,-0.63,-0.615,-0.6,-0.6,-0.61,-0.62,-0.61,-0.59,-0.565,-0.56,-0.555,-0.545,-0.525,-0.5,-0.465,-0.465,-0.435,-0.43,-0.405,-0.365,-0.325,-0.305,-0.29,-0.295,-0.285,-0.275,-0.225,-0.2,-0.195,-0.21,-0.22,-0.19,-0.18,-0.17,-0.17,-0.17,-0.18,-0.19,-0.175,-0.165,-0.17,-0.175,-0.18,-0.175,-0.16,-0.155,-0.165,-0.18,-0.2,-0.19,-0.175,-0.175,-0.19,-0.195,-0.23,-0.21,-0.19,-0.165,-0.16,-0.165,-0.165,-0.13,-0.09,-0.05,-0.01,0.035,0.09,0.17,0.265,0.355,0.435,0.515,0.615,0.72,0.825,0.93,1.03,1.125,1.23,1.36,1.51,1.665,1.845,1.99,2.115,2.24,2.32,2.38,2.385,2.37,2.34,2.29,2.215,2.07,1.84,1.545,1.26,1.005,0.795,0.59,0.395,0.245,0.125,0.03,-0.07,-0.145,-0.235,-0.3,-0.34,-0.355,-0.38,-0.4,-0.465,-0.535,-0.58,-0.61,-0.615,-0.62,-0.65,-0.68,-0.69,-0.705,-0.69,-0.7,-0.705,-0.73,-0.755,-0.755,-0.77,-0.78,-0.77,-0.785,-0.79,-0.78,-0.79,-0.785,-0.805,-0.83,-0.845,-0.835,-0.825,-0.825,-0.835,-0.86,-0.89,-0.9,-0.905,-0.92,-0.92,-0.965,-0.975,-0.99,-1.015,-1.035,-1.04,-1.065,-1.08,-1.09,-1.095,-1.1,-1.13,-1.16,-1.2,-1.19,-1.195,-1.185,-1.215,-1.245,-1.245,-1.24,-1.22,-1.215,-1.22,-1.245,-1.23,-1.195,-1.18,-1.13,-1.11,-1.085,-1.055,-1.025,-0.98,-0.94,-0.91,-0.875,-0.83,-0.79,-0.73,-0.685,-0.665,-0.635,-0.605,-0.575,-0.535,-0.515,-0.5,-0.495,-0.485,-0.435,-0.41,-0.365,-0.35,-0.35,-0.345,-0.325,-0.305,-0.27,-0.265,-0.285,-0.285,-0.285,-0.275,-0.27,-0.275,-0.275,-0.285,-0.265,-0.25,-0.24,-0.255,-0.27,-0.285,-0.275,-0.26,-0.245,-0.255,-0.255,-0.26,-0.25,-0.255,-0.225,-0.25,-0.26,-0.275,-0.255,-0.255,-0.23,-0.225,-0.235,-0.25,-0.235,-0.24,-0.235,-0.245,-0.25,-0.25,-0.23,-0.22,-0.22,-0.235,-0.26,-0.265,-0.27,-0.23,-0.22,-0.22,-0.225,-0.235,-0.23,-0.235,-0.23,-0.25,-0.25,-0.25,-0.245,-0.235,-0.22,-0.23,-0.245,-0.255,-0.245,-0.25,-0.23,-0.24,-0.265
1.0,214.0,0.215,0.26,0.275,0.315,0.315,0.345,0.4,0.455,0.495,0.53,0.53,0.55,0.605,0.645,0.685,0.72,0.735,0.77,0.8,0.85,0.89,0.885,0.895,0.895,0.935,0.99,1.05,1.075,1.085,1.095,1.105,1.145,1.17,1.18,1.18,1.19,1.185,1.185,1.205,1.195,1.165,1.15,1.135,1.14,1.14,1.11,1.065,1.03,1.015,0.99,0.965,0.91,0.86,0.81,0.78,0.755,0.73,0.695,0.645,0.595,0.535,0.505,0.465,0.41,0.35,0.285,0.265,0.215,0.18,0.14,0.1,0.065,0.03,0.02,-0.005,-0.025,-0.045,-0.055,-0.05,-0.055,-0.075,-0.12,-0.15,-0.17,-0.155,-0.145,-0.17,-0.2,-0.23,-0.27,-0.285,-0.305,-0.325,-0.37,-0.405,-0.445,-0.46,-0.47,-0.455,-0.48,-0.505,-0.5,-0.485,-0.44,-0.395,-0.375,-0.34,-0.315,-0.27,-0.22,-0.2,-0.185,-0.23,-0.255,-0.265,-0.295,-0.32,-0.385,-0.51,-0.7,-0.975,-1.26,-1.525,-1.705,-1.8,-1.805,-1.77,-1.71,-1.63,-1.565,-1.55,-1.58,-1.635,-1.705,-1.76,-1.8,-1.835,-1.85,-1.835,-1.79,-1.715,-1.655,-1.585,-1.51,-1.44,-1.365,-1.285,-1.215,-1.13,-1.015,-0.925,-0.83,-0.74,-0.67,-0.58,-0.515,-0.42,-0.315,-0.225,-0.15,-0.09,-0.05,-0.005,0.02,0.07,0.1,0.13,0.13,0.165,0.175,0.21,0.22,0.235,0.24,0.275,0.29,0.325,0.34,0.335,0.355,0.365,0.425,0.435,0.455,0.465,0.48,0.525,0.57,0.61,0.615,0.64,0.65,0.68,0.7,0.71,0.73,0.745,0.755,0.78,0.81,0.84,0.83,0.855,0.865,0.88,0.915,0.945,0.945,0.935,0.935,0.95,0.965,0.985,0.975,0.975,0.975,0.975,0.99,0.995,0.995,1.01,1.025,1.07,1.11,1.15,1.195,1.235,1.28,1.33,1.36,1.365,1.38,1.37,1.355,1.325,1.315,1.27,1.22,1.12,0.945,0.67,0.33,-0.03,-0.4,-0.76,-1.025,-1.28,-1.5,-1.69,-1.845,-1.98,-2.025,-2.08,-2.16,-2.215,-2.285,-2.33,-2.355,-2.305,-2.26,-2.23,-2.23,-2.215,-2.19,-2.115,-2.0,-1.84,-1.7,-1.605,-1.52,-1.42,-1.29,-1.145,-1.055,-0.96,-0.9,-0.86,-0.79,-0.74,-0.695,-0.645,-0.595,-0.54,-0.48,-0.41,-0.355,-0.325,-0.29,-0.245,-0.195,-0.15,-0.105,-0.1,-0.065,-0.04,0.0,0.045,0.065,0.095,0.11
1.0,214.0,-1.705,-1.8,-1.805,-1.77,-1.71,-1.63,-1.565,-1.55,-1.58,-1.635,-1.705,-1.76,-1.8,-1.835,-1.85,-1.835,-1.79,-1.715,-1.655,-1.585,-1.51,-1.44,-1.365,-1.285,-1.215,-1.13,-1.015,-0.925,-0.83,-0.74,-0.67,-0.58,-0.515,-0.42,-0.315,-0.225,-0.15,-0.09,-0.05,-0.005,0.02,0.07,0.1,0.13,0.13,0.165,0.175,0.21,0.22,0.235,0.24,0.275,0.29,0.325,0.34,0.335,0.355,0.365,0.425,0.435,0.455,0.465,0.48,0.525,0.57,0.61,0.615,0.64,0.65,0.68,0.7,0.71,0.73,0.745,0.755,0.78,0.81,0.84,0.83,0.855,0.865,0.88,0.915,0.945,0.945,0.935,0.935,0.95,0.965,0.985,0.975,0.975,0.975,0.975,0.99,0.995,0.995,1.01,1.025,1.07,1.11,1.15,1.195,1.235,1.28,1.33,1.36,1.365,1.38,1.37,1.355,1.325,1.315,1.27,1.22,1.12,0.945,0.67,0.33,-0.03,-0.4,-0.76,-1.025,-1.28,-1.5,-1.69,-1.845,-1.98,-2.025,-2.08,-2.16,-2.215,-2.285,-2.33,-2.355,-2.305,-2.26,-2.23,-2.23,-2.215,-2.19,-2.115,-2.0,-1.84,-1.7,-1.605,-1.52,-1.42,-1.29,-1.145,-1.055,-0.96,-0.9,-0.86,-0.79,-0.74,-0.695,-0.645,-0.595,-0.54,-0.48,-0.41,-0.355,-0.325,-0.29,-0.245,-0.195,-0.15,-0.105,-0.1,-0.065,-0.04,0.0,0.045,0.065,0.095,0.11,0.14,0.185,0.2,0.22,0.215,0.245,0.275,0.305,0.345,0.36,0.39,0.425,0.485,0.53,0.575,0.605,0.645,0.68,0.74,0.79,0.835,0.85,0.845,0.86,0.875,0.885,0.905,0.91,0.91,0.895,0.895,0.905,0.9,0.905,0.865,0.845,0.83,0.82,0.78,0.75,0.71,0.68,0.68,0.655,0.64,0.585,0.545,0.505,0.5,0.46,0.43,0.405,0.335,0.29,0.26,0.24,0.21,0.17,0.125,0.1,0.075,0.055,0.02,-0.005,-0.025,-0.04,-0.045,-0.055,-0.06,-0.09,-0.135,-0.15,-0.15,-0.14,-0.15,-0.175,-0.205,-0.21,-0.21,-0.195,-0.19,-0.205,-0.23,-0.24,-0.245,-0.235,-0.22,-0.23,-0.23,-0.245,-0.26,-0.26,-0.26,-0.25,-0.285,-0.285,-0.26,-0.27,-0.265,-0.27,-0.285,-0.295,-0.28,-0.26,-0.27,-0.28,-0.3,-0.31,-0.305,-0.29,-0.285,-0.3,-0.315,-0.315,-0.32,-0.3,-0.3,-0.305,-0.32,-0.31,-0.315,-0.29,-0.31
1.0,214.0,-0.515,-0.505,-0.505,-0.5,-0.485,-0.455,-0.44,-0.42,-0.415,-0.405,-0.39,-0.365,-0.32,-0.3,-0.305,-0.3,-0.27,-0.25,-0.245,-0.26,-0.26,-0.27,-0.26,-0.24,-0.225,-0.23,-0.25,-0.255,-0.235,-0.23,-0.215,-0.225,-0.24,-0.25,-0.255,-0.235,-0.23,-0.23,-0.24,-0.255,-0.255,-0.245,-0.245,-0.26,-0.27,-0.28,-0.27,-0.255,-0.25,-0.265,-0.285,-0.28,-0.275,-0.255,-0.26,-0.265,-0.285,-0.285,-0.28,-0.29,-0.27,-0.27,-0.27,-0.285,-0.28,-0.28,-0.265,-0.275,-0.275,-0.27,-0.265,-0.255,-0.25,-0.255,-0.265,-0.275,-0.26,-0.255,-0.245,-0.26,-0.28,-0.285,-0.27,-0.27,-0.28,-0.28,-0.305,-0.32,-0.33,-0.345,-0.345,-0.375,-0.4,-0.405,-0.4,-0.37,-0.33,-0.295,-0.245,-0.19,-0.09,0.035,0.155,0.295,0.445,0.61,0.825,1.035,1.205,1.295,1.32,1.3,1.315,1.315,1.285,1.235,1.155,1.04,0.895,0.755,0.62,0.485,0.375,0.29,0.2,0.085,-0.04,-0.155,-0.26,-0.325,-0.365,-0.365,-0.365,-0.345,-0.335,-0.335,-0.34,-0.345,-0.375,-0.395,-0.405,-0.41,-0.4,-0.39,-0.395,-0.4,-0.425,-0.45,-0.45,-0.445,-0.45,-0.455,-0.48,-0.485,-0.465,-0.455,-0.44,-0.435,-0.45,-0.45,-0.435,-0.44,-0.42,-0.43,-0.435,-0.435,-0.425,-0.4,-0.395,-0.405,-0.42,-0.445,-0.425,-0.415,-0.41,-0.41,-0.43,-0.445,-0.44,-0.415,-0.43,-0.435,-0.43,-0.445,-0.435,-0.415,-0.41,-0.41,-0.43,-0.43,-0.44,-0.4,-0.395,-0.4,-0.405,-0.41,-0.4,-0.37,-0.375,-0.385,-0.38,-0.365,-0.345,-0.32,-0.305,-0.32,-0.34,-0.305,-0.285,-0.265,-0.25,-0.24,-0.25,-0.255,-0.24,-0.215,-0.205,-0.185,-0.185,-0.17,-0.145,-0.125,-0.11,-0.11,-0.125,-0.115,-0.095,-0.09,-0.08,-0.095,-0.115,-0.14,-0.14,-0.135,-0.12,-0.11,-0.135,-0.155,-0.15,-0.17,-0.16,-0.17,-0.185,-0.2,-0.205,-0.205,-0.205,-0.245,-0.245,-0.26,-0.235,-0.23,-0.23,-0.24,-0.27,-0.275,-0.285,-0.28,-0.27,-0.285,-0.285,-0.285,-0.28,-0.27,-0.26,-0.28,-0.295,-0.315,-0.295,-0.28,-0.28,-0.285,-0.3,-0.315,-0.315,-0.295,-0.285,-0.285,-0.285,-0.3,-0.3,-0.285,-0.28,-0.305,-0.31,-0.325,-0.325,-0.31,-0.305,-0.315,-0.325,-0.33,-0.31,-0.295,-0.285,-0.295,-0.32,-0.325,-0.32,-0.305
1.0,214.0,-0.485,-0.505,-0.515,-0.525,-0.535,-0.52,-0.51,-0.51,-0.53,-0.545,-0.535,-0.535,-0.53,-0.535,-0.545,-0.565,-0.56,-0.55,-0.545,-0.565,-0.575,-0.585,-0.58,-0.575,-0.56,-0.575,-0.59,-0.615,-0.59,-0.585,-0.565,-0.565,-0.575,-0.585,-0.58,-0.565,-0.545,-0.535,-0.54,-0.525,-0.525,-0.495,-0.47,-0.465,-0.455,-0.43,-0.415,-0.395,-0.37,-0.375,-0.38,-0.355,-0.335,-0.315,-0.295,-0.3,-0.31,-0.325,-0.31,-0.285,-0.285,-0.285,-0.3,-0.31,-0.305,-0.3,-0.29,-0.305,-0.305,-0.315,-0.325,-0.315,-0.31,-0.31,-0.32,-0.325,-0.33,-0.31,-0.295,-0.32,-0.34,-0.33,-0.32,-0.31,-0.295,-0.31,-0.34,-0.365,-0.335,-0.345,-0.315,-0.345,-0.365,-0.385,-0.39,-0.4,-0.41,-0.43,-0.425,-0.42,-0.365,-0.29,-0.19,-0.07,0.085,0.27,0.455,0.67,0.845,0.985,1.07,1.12,1.11,1.06,0.995,0.895,0.795,0.635,0.485,0.335,0.155,-0.035,-0.2,-0.315,-0.425,-0.475,-0.52,-0.565,-0.58,-0.59,-0.575,-0.525,-0.48,-0.445,-0.45,-0.46,-0.46,-0.44,-0.415,-0.43,-0.46,-0.46,-0.46,-0.435,-0.45,-0.46,-0.465,-0.465,-0.45,-0.44,-0.45,-0.46,-0.48,-0.455,-0.42,-0.39,-0.375,-0.395,-0.4,-0.42,-0.395,-0.39,-0.385,-0.375,-0.385,-0.39,-0.38,-0.365,-0.355,-0.345,-0.355,-0.35,-0.35,-0.335,-0.325,-0.33,-0.335,-0.32,-0.31,-0.29,-0.285,-0.29,-0.285,-0.295,-0.24,-0.205,-0.195,-0.19,-0.185,-0.175,-0.155,-0.1,-0.08,-0.075,-0.085,-0.075,-0.05,0.0,0.04,0.035,0.04,0.045,0.065,0.1,0.115,0.11,0.09,0.085,0.045,0.065,0.055,0.045,0.01,-0.02,-0.055,-0.065,-0.075,-0.095,-0.12,-0.155,-0.185,-0.19,-0.195,-0.205,-0.225,-0.26,-0.24,-0.245,-0.245,-0.28,-0.31,-0.315,-0.325,-0.305,-0.3,-0.32,-0.35,-0.36,-0.365,-0.345,-0.33,-0.335,-0.345,-0.36,-0.36,-0.355,-0.32,-0.34,-0.35,-0.375,-0.36,-0.355,-0.345,-0.36,-0.37,-0.385,-0.385,-0.375,-0.365,-0.365,-0.385,-0.385,-0.375,-0.365,-0.37,-0.385,-0.395,-0.41,-0.405,-0.38,-0.37,-0.375,-0.39,-0.415,-0.405,-0.385,-0.365,-0.39,-0.425,-0.43,-0.435,-0.43,-0.405,-0.405,-0.425,-0.42,-0.415,-0.42,-0.395,-0.395,-0.415,-0.42,-0.425,-0.42,-0.425,-0.42,-0.425,-0.43,-0.43,-0.42
1.0,214.0,-0.525,-0.53,-0.545,-0.56,-0.57,-0.57,-0.565,-0.58,-0.605,-0.635,-0.61,-0.605,-0.595,-0.615,-0.615,-0.635,-0.63,-0.63,-0.62,-0.625,-0.64,-0.64,-0.65,-0.635,-0.62,-0.625,-0.615,-0.61,-0.6,-0.575,-0.56,-0.555,-0.57,-0.565,-0.535,-0.505,-0.485,-0.44,-0.44,-0.44,-0.42,-0.375,-0.345,-0.32,-0.32,-0.31,-0.295,-0.27,-0.26,-0.25,-0.245,-0.255,-0.235,-0.22,-0.19,-0.205,-0.22,-0.255,-0.245,-0.22,-0.205,-0.205,-0.215,-0.205,-0.21,-0.215,-0.215,-0.205,-0.22,-0.225,-0.215,-0.19,-0.205,-0.235,-0.235,-0.25,-0.255,-0.23,-0.205,-0.2,-0.21,-0.235,-0.24,-0.23,-0.225,-0.235,-0.26,-0.27,-0.265,-0.28,-0.295,-0.315,-0.335,-0.37,-0.375,-0.365,-0.345,-0.345,-0.33,-0.28,-0.215,-0.125,-0.02,0.09,0.215,0.325,0.43,0.545,0.66,0.77,0.85,0.865,0.845,0.77,0.7,0.605,0.515,0.43,0.335,0.24,0.145,0.04,-0.09,-0.235,-0.37,-0.475,-0.56,-0.645,-0.72,-0.75,-0.75,-0.705,-0.655,-0.62,-0.57,-0.515,-0.445,-0.385,-0.335,-0.34,-0.34,-0.365,-0.345,-0.305,-0.285,-0.275,-0.295,-0.29,-0.285,-0.26,-0.25,-0.26,-0.265,-0.285,-0.285,-0.29,-0.28,-0.295,-0.315,-0.325,-0.32,-0.3,-0.265,-0.26,-0.265,-0.26,-0.25,-0.22,-0.195,-0.215,-0.21,-0.22,-0.22,-0.215,-0.2,-0.205,-0.205,-0.19,-0.19,-0.185,-0.18,-0.17,-0.18,-0.18,-0.15,-0.135,-0.115,-0.105,-0.13,-0.12,-0.11,-0.085,-0.05,-0.04,-0.05,-0.035,-0.015,0.01,0.03,0.045,0.045,0.07,0.09,0.125,0.145,0.155,0.155,0.18,0.2,0.235,0.25,0.265,0.27,0.27,0.295,0.315,0.335,0.335,0.32,0.29,0.29,0.29,0.28,0.265,0.24,0.205,0.19,0.19,0.16,0.13,0.1,0.065,0.07,0.06,0.05,0.025,-0.015,-0.045,-0.065,-0.08,-0.07,-0.085,-0.12,-0.145,-0.135,-0.15,-0.135,-0.16,-0.155,-0.175,-0.165,-0.165,-0.18,-0.18,-0.2,-0.2,-0.195,-0.185,-0.18,-0.185,-0.205,-0.215,-0.225,-0.205,-0.19,-0.185,-0.21,-0.225,-0.22,-0.205,-0.215,-0.2,-0.225,-0.22,-0.215,-0.205,-0.205,-0.21,-0.23,-0.235,-0.23,-0.21,-0.215,-0.195,-0.23,-0.24,-0.245,-0.22,-0.205,-0.22,-0.225,-0.23,-0.25,-0.225,-0.22,-0.23,-0.24,-0.25,-0.245,-0.235
1.0,214.0,0.04,0.02,-0.025,-0.085,-0.115,-0.15,-0.165,-0.2,-0.24,-0.28,-0.33,-0.36,-0.38,-0.39,-0.395,-0.41,-0.42,-0.435,-0.425,-0.42,-0.42,-0.435,-0.45,-0.445,-0.42,-0.425,-0.44,-0.445,-0.455,-0.45,-0.45,-0.45,-0.455,-0.475,-0.47,-0.475,-0.485,-0.47,-0.475,-0.49,-0.51,-0.5,-0.5,-0.505,-0.52,-0.535,-0.545,-0.555,-0.54,-0.54,-0.555,-0.59,-0.605,-0.58,-0.565,-0.575,-0.595,-0.605,-0.63,-0.625,-0.605,-0.58,-0.595,-0.605,-0.635,-0.615,-0.585,-0.565,-0.55,-0.555,-0.55,-0.525,-0.495,-0.46,-0.425,-0.415,-0.405,-0.385,-0.355,-0.315,-0.315,-0.305,-0.29,-0.27,-0.26,-0.23,-0.24,-0.255,-0.235,-0.23,-0.215,-0.205,-0.235,-0.23,-0.22,-0.205,-0.195,-0.17,-0.16,-0.165,-0.135,-0.07,0.04,0.16,0.275,0.39,0.51,0.635,0.74,0.87,0.955,1.04,1.095,1.155,1.145,1.045,0.78,0.38,-0.075,-0.48,-0.81,-1.075,-1.25,-1.37,-1.46,-1.525,-1.625,-1.73,-1.83,-1.885,-1.92,-1.92,-1.92,-1.94,-1.955,-1.975,-1.985,-1.975,-1.94,-1.89,-1.82,-1.705,-1.58,-1.42,-1.26,-1.13,-1.015,-0.965,-0.915,-0.88,-0.845,-0.78,-0.78,-0.775,-0.75,-0.71,-0.625,-0.535,-0.465,-0.405,-0.35,-0.305,-0.25,-0.2,-0.135,-0.1,-0.055,-0.015,0.02,0.025,0.06,0.06,0.08,0.09,0.13,0.195,0.23,0.25,0.29,0.33,0.365,0.405,0.415,0.43,0.445,0.5,0.56,0.6,0.6,0.655,0.675,0.71,0.765,0.81,0.825,0.85,0.87,0.895,0.935,0.965,1.0,1.01,1.025,1.055,1.09,1.105,1.115,1.14,1.145,1.145,1.17,1.19,1.17,1.145,1.145,1.145,1.14,1.13,1.105,1.065,1.035,1.01,0.995,0.97,0.925,0.875,0.815,0.795,0.78,0.76,0.715,0.66,0.6,0.565,0.52,0.49,0.455,0.385,0.34,0.305,0.265,0.235,0.175,0.14,0.105,0.085,0.07,0.065,0.02,-0.015,-0.05,-0.075,-0.08,-0.075,-0.105,-0.14,-0.155,-0.16,-0.15,-0.14,-0.155,-0.175,-0.21,-0.2,-0.2,-0.195,-0.195,-0.21,-0.225,-0.23,-0.215,-0.22,-0.235,-0.235,-0.245,-0.245,-0.25,-0.245,-0.245,-0.245,-0.265,-0.255,-0.23,-0.245,-0.25,-0.265,-0.28,-0.285,-0.265,-0.255,-0.27,-0.28,-0.29,-0.295,-0.28,-0.27,-0.275,-0.275,-0.305,-0.31
1.0,214.0,-0.39,-0.46,-0.48,-0.47,-0.445,-0.485,-0.59,-0.72,-0.715,-0.58,-0.49,-0.49,-0.43,-0.255,-0.12,-0.09,-0.155,-0.195,-0.15,-0.11,-0.155,-0.32,-0.47,-0.435,-0.22,-0.075,-0.145,-0.26,-0.23,-0.175,-0.205,-0.305,-0.34,-0.315,-0.195,-0.18,-0.3,-0.43,-0.445,-0.345,-0.275,-0.325,-0.395,-0.465,-0.48,-0.475,-0.405,-0.35,-0.295,-0.26,-0.27,-0.28,-0.225,-0.18,-0.185,-0.265,-0.365,-0.39,-0.3,-0.23,-0.23,-0.275,-0.3,-0.28,-0.22,-0.19,-0.205,-0.305,-0.365,-0.245,-0.02,0.06,-0.04,-0.14,-0.13,-0.115,-0.105,-0.055,0.005,0.01,-0.005,-0.01,-0.01,0.0,0.005,-0.03,-0.06,-0.1,-0.12,-0.115,-0.085,-0.04,-0.015,-0.02,-0.045,-0.055,-0.02,0.04,0.085,0.12,0.195,0.29,0.435,0.56,0.71,0.845,0.975,1.12,1.27,1.385,1.47,1.56,1.66,1.75,1.72,1.54,1.22,0.845,0.485,0.1,-0.28,-0.645,-0.945,-1.205,-1.41,-1.555,-1.66,-1.75,-1.805,-1.865,-1.905,-1.93,-1.945,-1.935,-1.92,-1.875,-1.83,-1.765,-1.705,-1.64,-1.57,-1.495,-1.42,-1.34,-1.21,-1.09,-0.975,-0.91,-0.82,-0.755,-0.69,-0.645,-0.615,-0.63,-0.615,-0.58,-0.52,-0.455,-0.42,-0.38,-0.34,-0.29,-0.24,-0.195,-0.18,-0.16,-0.15,-0.115,-0.06,-0.045,-0.025,0.005,0.025,0.055,0.085,0.095,0.105,0.105,0.11,0.145,0.195,0.23,0.26,0.28,0.31,0.335,0.38,0.42,0.45,0.475,0.49,0.505,0.545,0.565,0.59,0.61,0.66,0.71,0.77,0.8,0.83,0.835,0.87,0.92,0.965,0.985,1.025,1.045,1.075,1.105,1.14,1.14,1.135,1.145,1.17,1.205,1.24,1.265,1.27,1.27,1.295,1.335,1.36,1.36,1.345,1.315,1.315,1.325,1.33,1.315,1.275,1.25,1.225,1.205,1.18,1.12,1.09,1.05,1.025,1.005,0.97,0.905,0.84,0.775,0.745,0.74,0.72,0.675,0.585,0.525,0.49,0.47,0.435,0.41,0.365,0.32,0.3,0.29,0.25,0.185,0.135,0.115,0.115,0.115,0.135,0.13,0.1,0.08,0.075,0.1,0.105,0.085,0.075,0.055,0.045,0.055,0.085,0.075,0.03,-0.02,-0.04,-0.03,-0.01,-0.015,-0.05,-0.06,-0.05,-0.03,-0.015,-0.02,-0.02,-0.01,0.01,0.02,0.025,0.01,-0.015,-0.06,-0.065,-0.035
1.0,214.0,-0.355,-0.38,-0.405,-0.42,-0.445,-0.45,-0.445,-0.445,-0.445,-0.47,-0.475,-0.475,-0.47,-0.455,-0.45,-0.465,-0.485,-0.49,-0.48,-0.47,-0.465,-0.48,-0.5,-0.52,-0.52,-0.5,-0.49,-0.495,-0.51,-0.535,-0.52,-0.51,-0.52,-0.53,-0.55,-0.55,-0.56,-0.565,-0.57,-0.59,-0.585,-0.59,-0.61,-0.605,-0.615,-0.635,-0.66,-0.66,-0.65,-0.635,-0.645,-0.655,-0.67,-0.665,-0.655,-0.64,-0.63,-0.65,-0.66,-0.665,-0.63,-0.6,-0.57,-0.575,-0.565,-0.575,-0.55,-0.51,-0.49,-0.47,-0.45,-0.435,-0.4,-0.37,-0.32,-0.325,-0.31,-0.295,-0.28,-0.285,-0.26,-0.26,-0.27,-0.265,-0.235,-0.215,-0.205,-0.225,-0.23,-0.245,-0.215,-0.195,-0.195,-0.19,-0.2,-0.2,-0.17,-0.125,-0.07,-0.025,0.01,0.075,0.18,0.305,0.43,0.57,0.685,0.8,0.925,1.04,1.105,1.18,1.225,1.235,1.15,0.945,0.68,0.39,0.035,-0.33,-0.67,-0.93,-1.14,-1.325,-1.505,-1.645,-1.72,-1.755,-1.755,-1.8,-1.865,-1.93,-1.965,-1.98,-1.975,-1.98,-1.985,-1.97,-1.93,-1.83,-1.72,-1.575,-1.425,-1.28,-1.135,-1.035,-0.94,-0.895,-0.855,-0.82,-0.805,-0.775,-0.76,-0.755,-0.735,-0.695,-0.645,-0.58,-0.51,-0.445,-0.405,-0.365,-0.315,-0.27,-0.2,-0.17,-0.14,-0.11,-0.085,-0.04,-0.015,0.005,0.025,0.03,0.06,0.075,0.105,0.14,0.185,0.22,0.265,0.305,0.34,0.365,0.37,0.425,0.475,0.515,0.545,0.555,0.565,0.59,0.64,0.695,0.75,0.77,0.785,0.815,0.855,0.915,0.95,0.97,0.98,1.0,1.015,1.065,1.085,1.085,1.08,1.085,1.105,1.115,1.13,1.13,1.11,1.095,1.085,1.075,1.055,1.04,1.01,0.985,0.975,0.96,0.925,0.865,0.82,0.775,0.75,0.715,0.66,0.605,0.55,0.505,0.465,0.44,0.405,0.345,0.29,0.24,0.225,0.215,0.18,0.155,0.115,0.07,0.025,0.005,-0.015,-0.045,-0.065,-0.1,-0.115,-0.125,-0.13,-0.15,-0.175,-0.165,-0.165,-0.17,-0.18,-0.2,-0.215,-0.225,-0.225,-0.225,-0.22,-0.24,-0.245,-0.27,-0.25,-0.24,-0.25,-0.255,-0.275,-0.29,-0.275,-0.26,-0.255,-0.26,-0.295,-0.31,-0.295,-0.29,-0.275,-0.275,-0.31,-0.315,-0.31,-0.305,-0.295,-0.3,-0.305,-0.325,-0.315,-0.32,-0.315,-0.315,-0.325,-0.335
1.0,214.0,-0.535,-0.555,-0.56,-0.545,-0.55,-0.54,-0.545,-0.565,-0.57,-0.565,-0.555,-0.54,-0.535,-0.545,-0.545,-0.54,-0.525,-0.49,-0.49,-0.505,-0.49,-0.445,-0.425,-0.405,-0.395,-0.39,-0.37,-0.335,-0.29,-0.27,-0.255,-0.26,-0.25,-0.225,-0.2,-0.165,-0.16,-0.155,-0.165,-0.18,-0.155,-0.145,-0.145,-0.15,-0.14,-0.145,-0.115,-0.125,-0.125,-0.125,-0.14,-0.14,-0.12,-0.1,-0.12,-0.135,-0.15,-0.155,-0.135,-0.135,-0.125,-0.13,-0.13,-0.13,-0.115,-0.12,-0.15,-0.165,-0.16,-0.145,-0.13,-0.115,-0.14,-0.15,-0.17,-0.145,-0.12,-0.115,-0.115,-0.135,-0.14,-0.135,-0.13,-0.125,-0.11,-0.105,-0.115,-0.095,-0.08,-0.055,-0.03,0.0,0.02,0.07,0.115,0.155,0.18,0.205,0.265,0.355,0.47,0.595,0.7,0.765,0.8,0.835,0.89,0.98,1.075,1.155,1.22,1.255,1.285,1.305,1.32,1.295,1.225,1.035,0.705,0.275,-0.215,-0.675,-0.995,-1.225,-1.35,-1.445,-1.495,-1.505,-1.49,-1.435,-1.385,-1.355,-1.34,-1.33,-1.3,-1.28,-1.24,-1.215,-1.22,-1.215,-1.2,-1.15,-1.09,-1.04,-1.035,-1.01,-1.0,-0.965,-0.935,-0.935,-0.94,-0.945,-0.95,-0.925,-0.86,-0.785,-0.705,-0.63,-0.58,-0.505,-0.405,-0.33,-0.27,-0.24,-0.225,-0.2,-0.175,-0.17,-0.155,-0.145,-0.145,-0.13,-0.115,-0.105,-0.115,-0.12,-0.13,-0.13,-0.095,-0.06,-0.035,-0.025,0.0,0.035,0.08,0.13,0.145,0.145,0.145,0.145,0.165,0.2,0.215,0.24,0.26,0.29,0.325,0.36,0.375,0.385,0.395,0.42,0.485,0.52,0.53,0.54,0.55,0.57,0.605,0.63,0.67,0.69,0.705,0.735,0.765,0.79,0.805,0.82,0.84,0.87,0.895,0.91,0.925,0.905,0.91,0.91,0.91,0.91,0.9,0.875,0.835,0.835,0.84,0.82,0.79,0.755,0.715,0.685,0.66,0.63,0.59,0.57,0.52,0.495,0.46,0.455,0.405,0.35,0.325,0.3,0.275,0.24,0.195,0.15,0.105,0.09,0.085,0.085,0.06,0.015,-0.01,-0.025,-0.03,-0.02,-0.035,-0.055,-0.08,-0.08,-0.09,-0.095,-0.11,-0.12,-0.13,-0.125,-0.125,-0.105,-0.125,-0.14,-0.155,-0.165,-0.14,-0.125,-0.135,-0.15,-0.19,-0.18,-0.165,-0.15,-0.16,-0.16,-0.175,-0.175,-0.175,-0.155,-0.165,-0.185,-0.195,-0.19,-0.18,-0.175
1.0,214.0,-0.16,-0.195,-0.22,-0.235,-0.275,-0.275,-0.31,-0.315,-0.34,-0.34,-0.33,-0.32,-0.34,-0.36,-0.37,-0.37,-0.355,-0.335,-0.345,-0.37,-0.395,-0.39,-0.39,-0.37,-0.375,-0.4,-0.41,-0.435,-0.405,-0.39,-0.39,-0.395,-0.42,-0.43,-0.42,-0.425,-0.425,-0.445,-0.45,-0.475,-0.46,-0.455,-0.47,-0.48,-0.49,-0.5,-0.515,-0.505,-0.515,-0.53,-0.535,-0.53,-0.52,-0.515,-0.535,-0.545,-0.56,-0.54,-0.535,-0.52,-0.515,-0.52,-0.51,-0.495,-0.47,-0.435,-0.41,-0.42,-0.415,-0.395,-0.355,-0.31,-0.285,-0.26,-0.25,-0.23,-0.21,-0.155,-0.15,-0.145,-0.145,-0.15,-0.13,-0.12,-0.105,-0.11,-0.125,-0.125,-0.12,-0.11,-0.1,-0.115,-0.125,-0.125,-0.13,-0.11,-0.105,-0.1,-0.07,-0.015,0.065,0.18,0.31,0.455,0.615,0.815,1.03,1.21,1.38,1.535,1.655,1.775,1.89,1.955,1.89,1.67,1.275,0.79,0.325,-0.09,-0.51,-0.895,-1.23,-1.48,-1.65,-1.795,-1.91,-2.0,-2.085,-2.16,-2.2,-2.205,-2.205,-2.2,-2.175,-2.15,-2.135,-2.115,-2.06,-1.96,-1.82,-1.625,-1.41,-1.265,-1.165,-1.1,-1.02,-0.95,-0.87,-0.82,-0.785,-0.785,-0.755,-0.71,-0.635,-0.545,-0.48,-0.43,-0.415,-0.36,-0.29,-0.23,-0.195,-0.165,-0.145,-0.1,-0.065,-0.025,0.005,0.02,0.03,0.04,0.06,0.065,0.085,0.12,0.15,0.175,0.23,0.26,0.285,0.3,0.315,0.33,0.375,0.415,0.445,0.455,0.475,0.51,0.575,0.64,0.665,0.675,0.66,0.685,0.73,0.78,0.81,0.835,0.865,0.905,0.94,1.005,1.04,1.06,1.085,1.12,1.15,1.175,1.185,1.185,1.185,1.205,1.24,1.245,1.23,1.22,1.195,1.2,1.205,1.215,1.18,1.155,1.12,1.08,1.055,1.02,0.965,0.92,0.87,0.825,0.785,0.75,0.715,0.655,0.59,0.535,0.5,0.465,0.435,0.4,0.355,0.33,0.3,0.285,0.235,0.18,0.135,0.1,0.09,0.07,0.035,-0.005,-0.03,-0.06,-0.07,-0.085,-0.095,-0.12,-0.14,-0.15,-0.145,-0.12,-0.14,-0.14,-0.16,-0.17,-0.175,-0.17,-0.195,-0.215,-0.22,-0.22,-0.22,-0.215,-0.22,-0.24,-0.245,-0.235,-0.225,-0.225,-0.215,-0.24,-0.25,-0.27,-0.25,-0.235,-0.24,-0.26,-0.295,-0.295,-0.29,-0.265,-0.26,-0.275,-0.305,-0.3,-0.295,-0.3
1.0,214.0,-0.725,-0.705,-0.695,-0.695,-0.7,-0.7,-0.685,-0.67,-0.64,-0.64,-0.635,-0.625,-0.6,-0.57,-0.555,-0.55,-0.56,-0.54,-0.505,-0.465,-0.405,-0.395,-0.4,-0.385,-0.37,-0.305,-0.285,-0.275,-0.29,-0.295,-0.27,-0.27,-0.255,-0.26,-0.28,-0.265,-0.24,-0.225,-0.215,-0.23,-0.25,-0.255,-0.265,-0.235,-0.225,-0.245,-0.26,-0.285,-0.295,-0.265,-0.23,-0.245,-0.235,-0.255,-0.255,-0.255,-0.235,-0.25,-0.255,-0.27,-0.255,-0.245,-0.235,-0.255,-0.27,-0.285,-0.255,-0.25,-0.23,-0.24,-0.27,-0.275,-0.285,-0.275,-0.26,-0.25,-0.26,-0.27,-0.27,-0.255,-0.26,-0.265,-0.285,-0.275,-0.27,-0.255,-0.24,-0.255,-0.27,-0.27,-0.255,-0.23,-0.22,-0.21,-0.23,-0.23,-0.2,-0.16,-0.105,-0.045,0.02,0.085,0.165,0.235,0.295,0.36,0.36,0.385,0.415,0.42,0.44,0.455,0.435,0.39,0.335,0.245,0.11,-0.11,-0.435,-0.785,-1.105,-1.375,-1.59,-1.79,-1.935,-2.07,-2.17,-2.215,-2.265,-2.315,-2.325,-2.34,-2.31,-2.28,-2.255,-2.24,-2.225,-2.185,-2.145,-2.065,-1.985,-1.91,-1.84,-1.77,-1.685,-1.58,-1.51,-1.44,-1.37,-1.295,-1.205,-1.125,-1.05,-1.005,-0.97,-0.925,-0.87,-0.81,-0.755,-0.72,-0.68,-0.605,-0.525,-0.45,-0.35,-0.285,-0.225,-0.155,-0.095,-0.03,0.02,0.06,0.08,0.1,0.11,0.12,0.14,0.145,0.155,0.17,0.225,0.28,0.32,0.335,0.355,0.35,0.385,0.435,0.48,0.48,0.5,0.51,0.535,0.57,0.59,0.61,0.62,0.63,0.67,0.7,0.74,0.755,0.775,0.81,0.86,0.91,0.945,0.965,1.0,1.015,1.08,1.125,1.16,1.18,1.205,1.22,1.255,1.29,1.34,1.36,1.38,1.41,1.435,1.48,1.5,1.52,1.515,1.54,1.54,1.57,1.585,1.575,1.55,1.55,1.53,1.535,1.53,1.505,1.465,1.42,1.405,1.37,1.34,1.27,1.215,1.16,1.1,1.06,1.0,0.935,0.85,0.795,0.74,0.715,0.68,0.62,0.57,0.54,0.505,0.465,0.42,0.365,0.31,0.265,0.23,0.215,0.185,0.13,0.09,0.05,0.035,0.03,0.02,-0.005,-0.035,-0.065,-0.07,-0.07,-0.08,-0.105,-0.13,-0.145,-0.14,-0.13,-0.115,-0.13,-0.17,-0.185,-0.18,-0.175,-0.165,-0.185,-0.205,-0.21,-0.22,-0.215,-0.21,-0.215,-0.24,-0.23
1.0,214.0,-0.435,-0.455,-0.475,-0.47,-0.45,-0.44,-0.45,-0.46,-0.47,-0.475,-0.47,-0.475,-0.47,-0.47,-0.485,-0.49,-0.49,-0.48,-0.49,-0.5,-0.515,-0.51,-0.495,-0.49,-0.5,-0.545,-0.555,-0.555,-0.535,-0.525,-0.525,-0.535,-0.57,-0.56,-0.565,-0.555,-0.57,-0.58,-0.6,-0.6,-0.615,-0.61,-0.61,-0.635,-0.645,-0.645,-0.62,-0.6,-0.62,-0.63,-0.63,-0.63,-0.595,-0.57,-0.575,-0.58,-0.575,-0.555,-0.525,-0.49,-0.48,-0.465,-0.45,-0.455,-0.42,-0.385,-0.375,-0.35,-0.335,-0.305,-0.29,-0.265,-0.26,-0.23,-0.235,-0.215,-0.2,-0.18,-0.195,-0.19,-0.19,-0.18,-0.17,-0.15,-0.155,-0.16,-0.175,-0.175,-0.16,-0.15,-0.145,-0.16,-0.19,-0.205,-0.17,-0.15,-0.13,-0.115,-0.105,-0.02,0.045,0.13,0.205,0.305,0.415,0.59,0.795,0.98,1.15,1.32,1.46,1.58,1.66,1.7,1.65,1.455,1.125,0.735,0.36,0.035,-0.28,-0.58,-0.835,-1.05,-1.22,-1.385,-1.53,-1.675,-1.78,-1.855,-1.915,-1.97,-2.005,-2.035,-2.07,-2.075,-2.08,-2.045,-2.0,-1.89,-1.75,-1.565,-1.39,-1.22,-1.1,-1.005,-0.935,-0.89,-0.865,-0.825,-0.805,-0.78,-0.74,-0.67,-0.595,-0.53,-0.475,-0.445,-0.41,-0.37,-0.315,-0.25,-0.21,-0.2,-0.17,-0.11,-0.055,-0.01,0.0,-0.01,-0.005,0.04,0.095,0.14,0.165,0.165,0.2,0.235,0.275,0.305,0.335,0.36,0.385,0.41,0.445,0.49,0.535,0.555,0.575,0.62,0.665,0.705,0.735,0.76,0.785,0.82,0.86,0.89,0.9,0.925,0.93,0.985,1.025,1.065,1.085,1.075,1.09,1.125,1.135,1.16,1.155,1.135,1.135,1.135,1.145,1.125,1.1,1.075,1.015,0.985,0.975,0.945,0.9,0.855,0.8,0.775,0.745,0.71,0.67,0.625,0.575,0.54,0.51,0.485,0.425,0.38,0.33,0.285,0.255,0.215,0.16,0.085,0.055,0.045,0.035,0.03,0.0,-0.04,-0.08,-0.09,-0.08,-0.09,-0.095,-0.13,-0.155,-0.16,-0.145,-0.14,-0.15,-0.175,-0.195,-0.2,-0.2,-0.19,-0.185,-0.195,-0.195,-0.225,-0.22,-0.22,-0.225,-0.23,-0.235,-0.23,-0.225,-0.22,-0.225,-0.255,-0.27,-0.265,-0.255,-0.25,-0.26,-0.27,-0.275,-0.275,-0.245,-0.255,-0.26,-0.285,-0.29,-0.305,-0.28,-0.26,-0.285,-0.295,-0.31,-0.315,-0.3,-0.285
1.0,214.0,-0.325,-0.34,-0.35,-0.365,-0.36,-0.35,-0.37,-0.38,-0.38,-0.4,-0.385,-0.385,-0.385,-0.4,-0.415,-0.44,-0.405,-0.385,-0.39,-0.415,-0.435,-0.465,-0.445,-0.43,-0.41,-0.415,-0.445,-0.475,-0.47,-0.455,-0.44,-0.45,-0.455,-0.465,-0.47,-0.47,-0.47,-0.49,-0.49,-0.495,-0.5,-0.495,-0.505,-0.505,-0.525,-0.525,-0.51,-0.505,-0.505,-0.51,-0.515,-0.51,-0.49,-0.475,-0.45,-0.45,-0.46,-0.465,-0.455,-0.43,-0.405,-0.395,-0.4,-0.375,-0.36,-0.31,-0.295,-0.275,-0.27,-0.25,-0.22,-0.195,-0.18,-0.17,-0.195,-0.18,-0.17,-0.145,-0.15,-0.16,-0.185,-0.175,-0.17,-0.165,-0.15,-0.16,-0.175,-0.185,-0.17,-0.145,-0.13,-0.135,-0.15,-0.175,-0.155,-0.14,-0.115,-0.11,-0.055,0.005,0.105,0.215,0.35,0.505,0.66,0.815,0.995,1.155,1.305,1.43,1.53,1.605,1.655,1.69,1.605,1.395,1.05,0.675,0.325,-0.02,-0.37,-0.77,-1.095,-1.33,-1.535,-1.67,-1.81,-1.91,-2.005,-2.065,-2.11,-2.12,-2.12,-2.12,-2.095,-2.035,-1.975,-1.89,-1.845,-1.735,-1.61,-1.425,-1.235,-1.065,-0.94,-0.855,-0.825,-0.795,-0.775,-0.745,-0.745,-0.76,-0.765,-0.72,-0.64,-0.55,-0.475,-0.44,-0.41,-0.37,-0.31,-0.25,-0.2,-0.15,-0.155,-0.15,-0.14,-0.13,-0.08,-0.08,-0.1,-0.095,-0.055,-0.005,0.015,0.055,0.07,0.1,0.12,0.145,0.175,0.175,0.195,0.21,0.245,0.265,0.29,0.31,0.315,0.34,0.385,0.435,0.465,0.48,0.505,0.535,0.57,0.64,0.675,0.7,0.72,0.735,0.765,0.805,0.86,0.88,0.875,0.885,0.92,0.96,0.995,1.015,1.02,1.02,1.01,1.03,1.035,1.02,0.99,0.975,0.965,0.94,0.91,0.88,0.83,0.79,0.755,0.72,0.665,0.595,0.525,0.49,0.45,0.43,0.395,0.33,0.255,0.225,0.205,0.18,0.15,0.12,0.08,0.045,0.015,0.0,-0.015,-0.045,-0.08,-0.115,-0.115,-0.125,-0.11,-0.13,-0.15,-0.19,-0.2,-0.18,-0.17,-0.19,-0.2,-0.215,-0.22,-0.21,-0.205,-0.21,-0.22,-0.235,-0.235,-0.235,-0.24,-0.245,-0.26,-0.25,-0.25,-0.24,-0.25,-0.26,-0.28,-0.295,-0.27,-0.275,-0.275,-0.295,-0.32,-0.33,-0.325,-0.295,-0.29,-0.305,-0.335,-0.365,-0.33,-0.32,-0.305,-0.33,-0.335,-0.355,-0.345,-0.335
1.0,214.0,-0.485,-0.505,-0.505,-0.5,-0.495,-0.49,-0.505,-0.515,-0.545,-0.535,-0.53,-0.52,-0.535,-0.535,-0.555,-0.565,-0.57,-0.565,-0.575,-0.6,-0.6,-0.62,-0.605,-0.605,-0.605,-0.615,-0.605,-0.61,-0.6,-0.59,-0.595,-0.61,-0.6,-0.605,-0.575,-0.545,-0.54,-0.54,-0.525,-0.5,-0.455,-0.425,-0.425,-0.435,-0.42,-0.4,-0.35,-0.31,-0.3,-0.315,-0.33,-0.3,-0.27,-0.24,-0.245,-0.27,-0.29,-0.29,-0.26,-0.235,-0.23,-0.25,-0.255,-0.265,-0.265,-0.25,-0.255,-0.255,-0.265,-0.275,-0.265,-0.26,-0.27,-0.285,-0.285,-0.285,-0.29,-0.28,-0.295,-0.295,-0.295,-0.27,-0.235,-0.19,-0.15,-0.125,-0.085,-0.01,0.08,0.19,0.29,0.365,0.435,0.555,0.645,0.74,0.8,0.85,0.915,1.005,1.15,1.33,1.515,1.695,1.875,2.065,2.24,2.355,2.42,2.44,2.45,2.465,2.47,2.47,2.45,2.41,2.345,2.25,2.065,1.7,1.215,0.73,0.375,0.19,0.105,0.035,-0.065,-0.155,-0.28,-0.345,-0.395,-0.4,-0.415,-0.445,-0.49,-0.52,-0.55,-0.585,-0.64,-0.705,-0.74,-0.755,-0.77,-0.785,-0.82,-0.845,-0.89,-0.9,-0.915,-0.895,-0.905,-0.92,-0.935,-0.94,-0.94,-0.92,-0.925,-0.935,-0.95,-0.95,-0.96,-0.97,-0.985,-1.015,-1.025,-1.06,-1.045,-1.06,-1.075,-1.1,-1.135,-1.15,-1.145,-1.135,-1.14,-1.165,-1.185,-1.225,-1.23,-1.255,-1.25,-1.295,-1.325,-1.345,-1.36,-1.355,-1.375,-1.405,-1.43,-1.435,-1.435,-1.44,-1.46,-1.475,-1.485,-1.45,-1.435,-1.41,-1.405,-1.41,-1.405,-1.365,-1.32,-1.28,-1.25,-1.215,-1.205,-1.17,-1.1,-1.05,-1.015,-0.985,-0.945,-0.885,-0.81,-0.75,-0.72,-0.695,-0.625,-0.59,-0.56,-0.51,-0.495,-0.47,-0.46,-0.43,-0.4,-0.38,-0.375,-0.38,-0.39,-0.37,-0.35,-0.33,-0.325,-0.33,-0.36,-0.345,-0.32,-0.305,-0.305,-0.305,-0.315,-0.315,-0.32,-0.295,-0.3,-0.3,-0.305,-0.305,-0.285,-0.29,-0.29,-0.295,-0.305,-0.31,-0.29,-0.275,-0.27,-0.3,-0.3,-0.3,-0.265,-0.25,-0.26,-0.28,-0.3,-0.29,-0.28,-0.26,-0.26,-0.275,-0.29,-0.29,-0.28,-0.255,-0.265,-0.27,-0.285,-0.29,-0.285,-0.285,-0.26,-0.28,-0.3,-0.28,-0.265,-0.255,-0.27,-0.295,-0.295,-0.275,-0.255,-0.25,-0.275,-0.29,-0.295,-0.31,-0.27,-0.25
1.0,214.0,-0.37,-0.365,-0.37,-0.36,-0.365,-0.395,-0.415,-0.42,-0.39,-0.38,-0.36,-0.37,-0.395,-0.405,-0.4,-0.395,-0.4,-0.41,-0.42,-0.415,-0.415,-0.42,-0.42,-0.435,-0.435,-0.44,-0.42,-0.415,-0.415,-0.445,-0.465,-0.455,-0.445,-0.44,-0.43,-0.445,-0.465,-0.485,-0.48,-0.465,-0.465,-0.475,-0.49,-0.525,-0.5,-0.49,-0.5,-0.515,-0.515,-0.5,-0.505,-0.495,-0.505,-0.51,-0.525,-0.52,-0.515,-0.48,-0.47,-0.48,-0.49,-0.475,-0.435,-0.415,-0.385,-0.395,-0.395,-0.37,-0.35,-0.305,-0.285,-0.27,-0.27,-0.275,-0.255,-0.225,-0.21,-0.21,-0.205,-0.2,-0.19,-0.165,-0.175,-0.2,-0.2,-0.2,-0.18,-0.15,-0.17,-0.2,-0.21,-0.21,-0.19,-0.16,-0.155,-0.155,-0.14,-0.12,-0.04,0.06,0.14,0.24,0.365,0.515,0.655,0.805,0.945,1.085,1.215,1.34,1.47,1.55,1.605,1.635,1.585,1.485,1.26,0.93,0.55,0.15,-0.27,-0.665,-0.99,-1.225,-1.405,-1.57,-1.685,-1.755,-1.795,-1.825,-1.85,-1.875,-1.91,-1.92,-1.92,-1.89,-1.87,-1.855,-1.8,-1.695,-1.52,-1.335,-1.155,-1.02,-0.91,-0.815,-0.735,-0.71,-0.705,-0.705,-0.725,-0.705,-0.67,-0.605,-0.58,-0.555,-0.515,-0.48,-0.415,-0.35,-0.315,-0.295,-0.28,-0.235,-0.19,-0.145,-0.115,-0.115,-0.115,-0.09,-0.1,-0.08,-0.06,-0.045,-0.02,0.025,0.065,0.11,0.14,0.155,0.175,0.2,0.235,0.27,0.3,0.325,0.345,0.38,0.405,0.445,0.465,0.48,0.49,0.53,0.575,0.64,0.67,0.7,0.705,0.75,0.81,0.86,0.89,0.895,0.925,0.945,0.99,1.005,1.01,1.03,0.995,0.99,1.01,1.03,1.01,1.0,0.95,0.91,0.92,0.915,0.875,0.84,0.79,0.75,0.72,0.685,0.65,0.625,0.58,0.54,0.515,0.49,0.425,0.375,0.32,0.29,0.26,0.22,0.18,0.125,0.08,0.05,0.045,0.03,0.005,-0.04,-0.06,-0.085,-0.09,-0.095,-0.09,-0.115,-0.155,-0.175,-0.185,-0.18,-0.17,-0.185,-0.205,-0.22,-0.225,-0.21,-0.21,-0.205,-0.215,-0.215,-0.215,-0.22,-0.23,-0.25,-0.255,-0.255,-0.245,-0.26,-0.255,-0.265,-0.29,-0.29,-0.27,-0.255,-0.275,-0.295,-0.315,-0.31,-0.295,-0.275,-0.275,-0.29,-0.315,-0.33,-0.315,-0.295,-0.3,-0.32,-0.32,-0.34,-0.34,-0.32,-0.315,-0.335
1.0,214.0,-0.4,-0.395,-0.4,-0.425,-0.44,-0.445,-0.41,-0.41,-0.415,-0.43,-0.45,-0.455,-0.435,-0.425,-0.435,-0.45,-0.485,-0.49,-0.475,-0.46,-0.46,-0.45,-0.465,-0.465,-0.465,-0.455,-0.455,-0.45,-0.45,-0.46,-0.455,-0.42,-0.41,-0.395,-0.38,-0.37,-0.345,-0.315,-0.31,-0.31,-0.32,-0.29,-0.255,-0.225,-0.2,-0.195,-0.2,-0.205,-0.185,-0.17,-0.17,-0.175,-0.21,-0.195,-0.155,-0.135,-0.14,-0.155,-0.185,-0.175,-0.16,-0.15,-0.14,-0.16,-0.195,-0.195,-0.185,-0.17,-0.15,-0.145,-0.15,-0.16,-0.155,-0.15,-0.155,-0.175,-0.18,-0.19,-0.175,-0.175,-0.175,-0.185,-0.2,-0.19,-0.18,-0.175,-0.17,-0.19,-0.2,-0.225,-0.215,-0.205,-0.21,-0.24,-0.265,-0.27,-0.255,-0.235,-0.185,-0.11,-0.02,0.105,0.255,0.415,0.56,0.685,0.79,0.93,1.1,1.265,1.385,1.425,1.395,1.33,1.25,1.195,1.105,1.025,0.905,0.805,0.73,0.625,0.495,0.325,0.185,0.075,-0.045,-0.15,-0.225,-0.285,-0.345,-0.38,-0.385,-0.365,-0.35,-0.345,-0.345,-0.36,-0.37,-0.37,-0.375,-0.385,-0.385,-0.38,-0.375,-0.36,-0.365,-0.38,-0.395,-0.395,-0.375,-0.35,-0.335,-0.35,-0.365,-0.365,-0.37,-0.365,-0.38,-0.375,-0.36,-0.35,-0.33,-0.315,-0.31,-0.325,-0.33,-0.33,-0.31,-0.29,-0.295,-0.305,-0.31,-0.31,-0.29,-0.265,-0.265,-0.26,-0.275,-0.27,-0.265,-0.25,-0.25,-0.26,-0.285,-0.285,-0.275,-0.265,-0.255,-0.26,-0.27,-0.25,-0.235,-0.2,-0.2,-0.235,-0.26,-0.245,-0.22,-0.17,-0.135,-0.125,-0.14,-0.13,-0.105,-0.09,-0.065,-0.07,-0.04,-0.005,0.03,0.05,0.065,0.07,0.09,0.115,0.135,0.165,0.145,0.135,0.125,0.13,0.15,0.17,0.17,0.16,0.14,0.1,0.085,0.095,0.075,0.05,0.015,0.005,0.005,0.015,0.0,-0.025,-0.045,-0.07,-0.065,-0.055,-0.075,-0.125,-0.155,-0.16,-0.15,-0.13,-0.14,-0.165,-0.185,-0.175,-0.17,-0.155,-0.165,-0.19,-0.22,-0.22,-0.215,-0.2,-0.2,-0.2,-0.2,-0.2,-0.22,-0.205,-0.2,-0.195,-0.215,-0.23,-0.205,-0.195,-0.215,-0.225,-0.235,-0.24,-0.235,-0.22,-0.215,-0.24,-0.255,-0.265,-0.27,-0.235,-0.225,-0.24,-0.26,-0.28,-0.26,-0.255,-0.255,-0.265,-0.285,-0.285,-0.27,-0.27,-0.255,-0.25,-0.26,-0.27
1.0,214.0,-0.51,-0.505,-0.49,-0.485,-0.49,-0.49,-0.485,-0.46,-0.45,-0.435,-0.44,-0.455,-0.445,-0.395,-0.355,-0.325,-0.33,-0.33,-0.3,-0.285,-0.255,-0.23,-0.22,-0.205,-0.2,-0.2,-0.175,-0.15,-0.14,-0.145,-0.15,-0.14,-0.13,-0.15,-0.16,-0.175,-0.185,-0.16,-0.145,-0.145,-0.17,-0.19,-0.2,-0.175,-0.165,-0.155,-0.175,-0.175,-0.205,-0.195,-0.185,-0.18,-0.19,-0.19,-0.19,-0.18,-0.17,-0.17,-0.175,-0.19,-0.18,-0.175,-0.165,-0.165,-0.18,-0.205,-0.2,-0.205,-0.185,-0.17,-0.175,-0.195,-0.19,-0.2,-0.195,-0.19,-0.195,-0.185,-0.18,-0.155,-0.11,-0.06,-0.035,0.0,0.04,0.1,0.175,0.23,0.29,0.37,0.44,0.535,0.65,0.76,0.85,0.925,1.045,1.195,1.35,1.49,1.615,1.7,1.825,1.985,2.125,2.25,2.345,2.41,2.46,2.49,2.505,2.52,2.515,2.48,2.46,2.445,2.425,2.35,2.21,1.935,1.57,1.165,0.83,0.59,0.41,0.28,0.17,0.08,-0.015,-0.1,-0.18,-0.24,-0.29,-0.32,-0.34,-0.37,-0.41,-0.475,-0.535,-0.585,-0.625,-0.65,-0.67,-0.69,-0.705,-0.715,-0.725,-0.755,-0.79,-0.825,-0.84,-0.86,-0.87,-0.885,-0.88,-0.89,-0.885,-0.89,-0.875,-0.875,-0.885,-0.885,-0.905,-0.925,-0.92,-0.94,-0.96,-0.975,-0.98,-0.975,-0.99,-1.005,-1.025,-1.055,-1.06,-1.07,-1.07,-1.08,-1.085,-1.12,-1.165,-1.17,-1.175,-1.18,-1.205,-1.235,-1.25,-1.28,-1.275,-1.265,-1.295,-1.325,-1.34,-1.35,-1.355,-1.37,-1.395,-1.44,-1.435,-1.445,-1.42,-1.42,-1.435,-1.43,-1.44,-1.425,-1.395,-1.385,-1.355,-1.35,-1.33,-1.3,-1.255,-1.22,-1.2,-1.17,-1.125,-1.075,-1.02,-0.965,-0.945,-0.91,-0.9,-0.85,-0.81,-0.76,-0.7,-0.655,-0.635,-0.6,-0.55,-0.515,-0.49,-0.475,-0.45,-0.43,-0.4,-0.375,-0.385,-0.385,-0.365,-0.35,-0.335,-0.31,-0.315,-0.325,-0.345,-0.32,-0.31,-0.295,-0.295,-0.3,-0.31,-0.305,-0.29,-0.285,-0.29,-0.295,-0.295,-0.285,-0.28,-0.27,-0.275,-0.285,-0.305,-0.285,-0.26,-0.245,-0.245,-0.265,-0.27,-0.245,-0.245,-0.24,-0.235,-0.255,-0.25,-0.24,-0.24,-0.235,-0.24,-0.255,-0.255,-0.255,-0.24,-0.215,-0.215,-0.23,-0.255,-0.265,-0.235,-0.235,-0.245,-0.24,-0.25,-0.22,-0.215,-0.215,-0.215,-0.245
1.0,214.0,-0.34,-0.335,-0.335,-0.335,-0.34,-0.345,-0.355,-0.33,-0.335,-0.35,-0.36,-0.37,-0.37,-0.355,-0.35,-0.365,-0.38,-0.38,-0.38,-0.37,-0.365,-0.365,-0.39,-0.4,-0.405,-0.4,-0.395,-0.4,-0.4,-0.42,-0.42,-0.42,-0.43,-0.435,-0.45,-0.455,-0.445,-0.435,-0.435,-0.455,-0.48,-0.495,-0.485,-0.48,-0.455,-0.455,-0.47,-0.49,-0.5,-0.49,-0.475,-0.465,-0.465,-0.46,-0.45,-0.43,-0.41,-0.405,-0.415,-0.405,-0.375,-0.34,-0.305,-0.315,-0.32,-0.32,-0.3,-0.265,-0.22,-0.21,-0.21,-0.215,-0.185,-0.165,-0.145,-0.14,-0.155,-0.135,-0.13,-0.11,-0.11,-0.11,-0.13,-0.145,-0.13,-0.105,-0.1,-0.1,-0.105,-0.115,-0.125,-0.1,-0.075,-0.065,-0.07,-0.04,0.0,0.05,0.09,0.185,0.255,0.35,0.475,0.61,0.755,0.865,0.975,1.085,1.225,1.35,1.44,1.53,1.6,1.635,1.615,1.505,1.28,0.925,0.51,0.095,-0.26,-0.64,-0.945,-1.195,-1.415,-1.58,-1.68,-1.74,-1.755,-1.79,-1.835,-1.875,-1.89,-1.9,-1.88,-1.89,-1.92,-1.91,-1.91,-1.84,-1.76,-1.69,-1.62,-1.545,-1.45,-1.335,-1.19,-1.07,-0.965,-0.875,-0.785,-0.715,-0.67,-0.645,-0.65,-0.65,-0.635,-0.61,-0.585,-0.555,-0.535,-0.495,-0.45,-0.39,-0.325,-0.285,-0.27,-0.245,-0.205,-0.155,-0.105,-0.085,-0.07,-0.055,-0.04,0.0,0.05,0.06,0.06,0.06,0.085,0.115,0.135,0.17,0.19,0.21,0.245,0.265,0.29,0.31,0.34,0.37,0.39,0.435,0.465,0.485,0.52,0.555,0.595,0.64,0.66,0.68,0.695,0.72,0.765,0.81,0.855,0.89,0.9,0.93,0.95,1.015,1.055,1.085,1.08,1.09,1.11,1.14,1.155,1.195,1.195,1.2,1.205,1.215,1.235,1.22,1.205,1.19,1.19,1.185,1.175,1.135,1.09,1.065,1.055,1.045,1.015,0.98,0.92,0.88,0.84,0.81,0.77,0.73,0.675,0.615,0.565,0.545,0.5,0.46,0.415,0.385,0.365,0.325,0.3,0.245,0.205,0.15,0.14,0.125,0.1,0.08,0.05,0.005,-0.01,-0.005,-0.005,-0.02,-0.05,-0.08,-0.095,-0.095,-0.095,-0.1,-0.12,-0.135,-0.15,-0.155,-0.135,-0.145,-0.16,-0.17,-0.17,-0.155,-0.15,-0.165,-0.19,-0.19,-0.2,-0.155,-0.155,-0.17,-0.2,-0.215,-0.205,-0.185,-0.185,-0.195,-0.2,-0.225
1.0,214.0,-0.475,-0.495,-0.5,-0.51,-0.505,-0.51,-0.51,-0.525,-0.52,-0.55,-0.56,-0.55,-0.52,-0.52,-0.545,-0.585,-0.59,-0.58,-0.58,-0.565,-0.585,-0.605,-0.63,-0.62,-0.605,-0.6,-0.605,-0.63,-0.65,-0.645,-0.645,-0.62,-0.63,-0.64,-0.635,-0.64,-0.625,-0.6,-0.595,-0.585,-0.585,-0.56,-0.525,-0.5,-0.48,-0.47,-0.425,-0.42,-0.39,-0.375,-0.365,-0.34,-0.315,-0.3,-0.285,-0.26,-0.275,-0.275,-0.265,-0.26,-0.24,-0.225,-0.25,-0.27,-0.265,-0.265,-0.245,-0.24,-0.25,-0.275,-0.285,-0.265,-0.245,-0.24,-0.25,-0.255,-0.27,-0.275,-0.26,-0.245,-0.25,-0.25,-0.265,-0.265,-0.265,-0.265,-0.27,-0.285,-0.315,-0.3,-0.29,-0.3,-0.335,-0.375,-0.4,-0.415,-0.425,-0.415,-0.43,-0.435,-0.4,-0.34,-0.255,-0.095,0.065,0.255,0.47,0.705,0.935,1.13,1.28,1.37,1.38,1.3,1.2,1.065,0.925,0.775,0.63,0.505,0.34,0.17,-0.015,-0.18,-0.32,-0.44,-0.505,-0.55,-0.58,-0.61,-0.6,-0.555,-0.49,-0.42,-0.385,-0.41,-0.43,-0.445,-0.415,-0.395,-0.39,-0.405,-0.39,-0.39,-0.375,-0.385,-0.395,-0.43,-0.42,-0.425,-0.415,-0.4,-0.41,-0.425,-0.445,-0.455,-0.44,-0.42,-0.415,-0.405,-0.405,-0.4,-0.38,-0.365,-0.355,-0.365,-0.385,-0.375,-0.35,-0.35,-0.365,-0.37,-0.385,-0.39,-0.36,-0.345,-0.37,-0.38,-0.38,-0.385,-0.385,-0.35,-0.35,-0.36,-0.375,-0.355,-0.345,-0.33,-0.325,-0.315,-0.325,-0.315,-0.3,-0.27,-0.27,-0.275,-0.25,-0.24,-0.22,-0.195,-0.19,-0.2,-0.19,-0.155,-0.13,-0.1,-0.09,-0.09,-0.07,-0.065,-0.04,0.005,0.02,0.025,0.025,0.04,0.06,0.07,0.07,0.055,0.04,0.05,0.055,0.06,0.035,0.0,-0.02,-0.04,-0.04,-0.03,-0.045,-0.065,-0.095,-0.105,-0.11,-0.11,-0.15,-0.16,-0.17,-0.175,-0.175,-0.18,-0.195,-0.23,-0.24,-0.225,-0.215,-0.195,-0.215,-0.23,-0.255,-0.25,-0.24,-0.23,-0.24,-0.235,-0.265,-0.26,-0.255,-0.25,-0.255,-0.265,-0.26,-0.265,-0.255,-0.24,-0.255,-0.275,-0.275,-0.255,-0.25,-0.25,-0.27,-0.27,-0.275,-0.27,-0.27,-0.24,-0.255,-0.28,-0.3,-0.295,-0.275,-0.26,-0.26,-0.265,-0.295,-0.295,-0.285,-0.28,-0.285,-0.285,-0.315,-0.31,-0.295,-0.295,-0.3,-0.32,-0.32,-0.31
