1.0,107.0,0.125,0.08,0.045,0.005,-0.04,-0.09,-0.11,-0.125,-0.18,-0.205,-0.24,-0.24,-0.255,-0.27,-0.285,-0.305,-0.345,-0.355,-0.38,-0.37,-0.385,-0.39,-0.42,-0.415,-0.41,-0.405,-0.415,-0.43,-0.435,-0.43,-0.42,-0.42,-0.435,-0.435,-0.445,-0.45,-0.445,-0.44,-0.45,-0.46,-0.46,-0.445,-0.44,-0.44,-0.435,-0.43,-0.43,-0.41,-0.4,-0.395,-0.395,-0.405,-0.405,-0.39,-0.37,-0.38,-0.385,-0.39,-0.385,-0.36,-0.32,-0.28,-0.26,-0.235,-0.2,-0.145,-0.075,-0.01,0.035,0.105,0.18,0.28,0.375,0.48,0.6,0.745,0.86,0.97,1.075,1.2,1.335,1.48,1.62,1.78,1.905,2.005,2.09,2.1,2.085,2.085,2.06,1.995,1.885,1.75,1.615,1.435,1.22,1.08,1.065,1.085,1.035,0.935,0.775,0.485,0.115,-0.255,-0.56,-0.795,-0.985,-1.195,-1.365,-1.485,-1.585,-1.64,-1.67,-1.655,-1.585,-1.495,-1.415,-1.31,-1.205,-1.11,-1.055,-1.065,-1.075,-1.065,-1.045,-1.005,-0.98,-0.97,-0.945,-0.925,-0.905,-0.915,-0.925,-0.93,-0.925,-0.915,-0.91,-0.935,-0.975,-1.015,-1.07,-1.085,-1.1,-1.115,-1.13,-1.155,-1.195,-1.22,-1.245,-1.27,-1.305,-1.34,-1.385,-1.415,-1.43,-1.45,-1.485,-1.525,-1.555,-1.575,-1.59,-1.625,-1.64,-1.65,-1.635,-1.625,-1.615,-1.615,-1.625,-1.625,-1.61,-1.59,-1.565,-1.525,-1.5,-1.485,-1.455,-1.415,-1.37,-1.315,-1.28,-1.25,-1.215,-1.175,-1.15,-1.11,-1.095,-1.085,-1.07,-1.02,-0.98,-0.945,-0.925,-0.915,-0.91,-0.875,-0.84,-0.83,-0.815,-0.815,-0.8,-0.765,-0.745,-0.725,-0.725,-0.725,-0.72,-0.71,-0.7,-0.67,-0.68,-0.67,-0.665,-0.645,-0.62,-0.605,-0.61,-0.62,-0.635,-0.635,-0.605,-0.585,-0.58,-0.57,-0.58,-0.58,-0.565,-0.56,-0.545,-0.565,-0.575,-0.555,-0.55,-0.535,-0.54,-0.54,-0.555,-0.54,-0.555,-0.55,-0.53,-0.545,-0.54,-0.535,-0.525,-0.52,-0.515,-0.505,-0.505,-0.5,-0.49,-0.48,-0.48,-0.48,-0.48,-0.465,-0.45,-0.45,-0.445,-0.45,-0.435,-0.425,-0.42,-0.4,-0.39,-0.39,-0.4,-0.39,-0.385,-0.39,-0.39,-0.385,-0.395,-0.385,-0.365,-0.36,-0.37,-0.37,-0.37,-0.365,-0.36,-0.355,-0.335,-0.335,-0.32,-0.305,-0.285,-0.295,-0.32,-0.335,-0.335,-0.33,-0.32,-0.31,-0.305,-0.295,-0.305,-0.285
1.0,107.0,0.54,0.52,0.475,0.445,0.425,0.41,0.36,0.32,0.285,0.25,0.24,0.245,0.22,0.17,0.12,0.065,0.025,-0.005,-0.035,-0.055,-0.08,-0.11,-0.16,-0.215,-0.285,-0.325,-0.34,-0.33,-0.345,-0.385,-0.445,-0.48,-0.505,-0.535,-0.575,-0.59,-0.615,-0.625,-0.62,-0.625,-0.635,-0.66,-0.685,-0.7,-0.695,-0.71,-0.74,-0.75,-0.765,-0.76,-0.74,-0.765,-0.795,-0.805,-0.785,-0.73,-0.72,-0.76,-0.785,-0.82,-0.82,-0.8,-0.765,-0.77,-0.79,-0.82,-0.86,-0.85,-0.84,-0.85,-0.835,-0.81,-0.79,-0.78,-0.8,-0.795,-0.8,-0.805,-0.805,-0.795,-0.795,-0.795,-0.775,-0.785,-0.775,-0.75,-0.69,-0.605,-0.535,-0.495,-0.47,-0.44,-0.4,-0.345,-0.26,-0.18,-0.105,-0.035,0.05,0.185,0.32,0.435,0.53,0.615,0.715,0.845,0.97,1.105,1.24,1.375,1.475,1.535,1.53,1.47,1.42,1.37,1.31,1.19,0.96,0.7,0.45,0.165,-0.17,-0.42,-0.55,-0.58,-0.64,-0.77,-0.91,-1.04,-1.175,-1.31,-1.455,-1.57,-1.655,-1.74,-1.82,-1.875,-1.925,-1.95,-1.965,-1.97,-1.93,-1.835,-1.73,-1.64,-1.56,-1.47,-1.38,-1.3,-1.29,-1.27,-1.28,-1.275,-1.285,-1.285,-1.3,-1.305,-1.305,-1.305,-1.32,-1.32,-1.325,-1.33,-1.335,-1.35,-1.38,-1.385,-1.41,-1.41,-1.43,-1.43,-1.455,-1.44,-1.44,-1.425,-1.465,-1.5,-1.52,-1.535,-1.53,-1.505,-1.5,-1.495,-1.515,-1.55,-1.565,-1.575,-1.55,-1.545,-1.545,-1.535,-1.54,-1.525,-1.51,-1.485,-1.465,-1.45,-1.445,-1.41,-1.37,-1.32,-1.305,-1.29,-1.275,-1.235,-1.185,-1.145,-1.125,-1.095,-1.075,-1.03,-0.985,-0.955,-0.92,-0.905,-0.86,-0.825,-0.78,-0.75,-0.725,-0.695,-0.67,-0.63,-0.58,-0.53,-0.5,-0.485,-0.465,-0.445,-0.42,-0.4,-0.375,-0.39,-0.39,-0.37,-0.33,-0.29,-0.295,-0.315,-0.325,-0.335,-0.35,-0.38,-0.375,-0.365,-0.345,-0.345,-0.35,-0.365,-0.385,-0.39,-0.42,-0.42,-0.43,-0.435,-0.455,-0.485,-0.51,-0.55,-0.565,-0.6,-0.62,-0.64,-0.655,-0.645,-0.655,-0.69,-0.715,-0.725,-0.73,-0.74,-0.75,-0.78,-0.8,-0.805,-0.82,-0.81,-0.8,-0.8,-0.82,-0.825,-0.835,-0.825,-0.81,-0.785,-0.795,-0.805,-0.825,-0.805,-0.795,-0.795,-0.8,-0.8,-0.8,-0.78,-0.76,-0.76,-0.775,-0.775
1.0,107.0,0.33,0.28,0.225,0.18,0.13,0.07,0.02,-0.055,-0.105,-0.175,-0.25,-0.32,-0.355,-0.395,-0.445,-0.485,-0.51,-0.54,-0.565,-0.6,-0.64,-0.665,-0.68,-0.725,-0.735,-0.75,-0.735,-0.735,-0.74,-0.75,-0.76,-0.755,-0.765,-0.785,-0.795,-0.795,-0.805,-0.805,-0.8,-0.79,-0.785,-0.79,-0.785,-0.79,-0.805,-0.835,-0.85,-0.865,-0.855,-0.83,-0.825,-0.84,-0.855,-0.87,-0.86,-0.845,-0.84,-0.845,-0.835,-0.855,-0.845,-0.845,-0.84,-0.84,-0.83,-0.835,-0.83,-0.82,-0.82,-0.825,-0.82,-0.82,-0.805,-0.79,-0.79,-0.795,-0.81,-0.825,-0.83,-0.815,-0.83,-0.82,-0.82,-0.815,-0.785,-0.755,-0.74,-0.7,-0.68,-0.64,-0.595,-0.555,-0.515,-0.445,-0.36,-0.265,-0.145,-0.015,0.11,0.25,0.365,0.47,0.58,0.7,0.83,0.95,1.105,1.27,1.43,1.555,1.655,1.72,1.73,1.7,1.675,1.64,1.58,1.45,1.265,1.095,0.91,0.695,0.475,0.345,0.33,0.28,0.175,0.03,-0.13,-0.34,-0.59,-0.865,-1.085,-1.235,-1.38,-1.53,-1.675,-1.785,-1.845,-1.88,-1.92,-1.925,-1.915,-1.855,-1.77,-1.685,-1.605,-1.515,-1.435,-1.38,-1.345,-1.34,-1.35,-1.36,-1.365,-1.36,-1.36,-1.35,-1.35,-1.37,-1.375,-1.38,-1.38,-1.385,-1.385,-1.415,-1.45,-1.465,-1.455,-1.43,-1.44,-1.46,-1.465,-1.505,-1.5,-1.525,-1.53,-1.555,-1.56,-1.59,-1.575,-1.565,-1.58,-1.6,-1.615,-1.605,-1.605,-1.595,-1.605,-1.59,-1.585,-1.595,-1.56,-1.555,-1.555,-1.54,-1.525,-1.49,-1.46,-1.43,-1.435,-1.445,-1.42,-1.385,-1.34,-1.28,-1.27,-1.25,-1.245,-1.23,-1.185,-1.135,-1.08,-1.06,-1.05,-1.035,-0.99,-0.945,-0.905,-0.88,-0.865,-0.845,-0.815,-0.775,-0.75,-0.71,-0.68,-0.665,-0.62,-0.565,-0.535,-0.525,-0.525,-0.54,-0.52,-0.475,-0.435,-0.425,-0.435,-0.485,-0.51,-0.515,-0.49,-0.48,-0.47,-0.47,-0.46,-0.46,-0.475,-0.49,-0.525,-0.54,-0.545,-0.535,-0.56,-0.57,-0.58,-0.605,-0.595,-0.61,-0.665,-0.715,-0.775,-0.8,-0.8,-0.79,-0.78,-0.78,-0.8,-0.82,-0.81,-0.81,-0.825,-0.825,-0.835,-0.85,-0.85,-0.855,-0.86,-0.86,-0.865,-0.835,-0.83,-0.825,-0.855,-0.845,-0.845,-0.825,-0.8,-0.785,-0.79,-0.805,-0.81,-0.81,-0.795,-0.785,-0.775,-0.78,-0.795,-0.815
1.0,107.0,0.495,0.505,0.53,0.55,0.535,0.52,0.51,0.51,0.535,0.56,0.58,0.565,0.55,0.52,0.47,0.445,0.455,0.445,0.44,0.43,0.405,0.37,0.325,0.285,0.225,0.195,0.17,0.135,0.105,0.05,0.02,-0.04,-0.085,-0.13,-0.185,-0.22,-0.25,-0.29,-0.335,-0.345,-0.37,-0.405,-0.43,-0.43,-0.43,-0.42,-0.4,-0.375,-0.38,-0.405,-0.41,-0.4,-0.395,-0.38,-0.37,-0.37,-0.38,-0.39,-0.41,-0.445,-0.465,-0.48,-0.49,-0.49,-0.485,-0.47,-0.455,-0.465,-0.485,-0.515,-0.56,-0.59,-0.62,-0.635,-0.65,-0.665,-0.68,-0.71,-0.755,-0.79,-0.815,-0.815,-0.825,-0.815,-0.785,-0.785,-0.805,-0.81,-0.77,-0.73,-0.7,-0.675,-0.63,-0.545,-0.475,-0.395,-0.305,-0.21,-0.07,0.075,0.19,0.295,0.38,0.495,0.655,0.81,0.96,1.1,1.2,1.275,1.335,1.355,1.35,1.335,1.3,1.205,1.05,0.91,0.775,0.655,0.46,0.18,-0.05,-0.165,-0.215,-0.335,-0.51,-0.7,-0.865,-1.005,-1.185,-1.395,-1.585,-1.745,-1.835,-1.89,-1.935,-1.995,-2.06,-2.1,-2.1,-2.035,-1.97,-1.895,-1.825,-1.75,-1.67,-1.605,-1.55,-1.515,-1.51,-1.54,-1.545,-1.53,-1.52,-1.53,-1.56,-1.605,-1.605,-1.59,-1.565,-1.575,-1.605,-1.64,-1.66,-1.65,-1.64,-1.655,-1.69,-1.73,-1.76,-1.795,-1.79,-1.805,-1.81,-1.815,-1.82,-1.82,-1.82,-1.84,-1.87,-1.9,-1.9,-1.895,-1.9,-1.905,-1.905,-1.9,-1.91,-1.905,-1.915,-1.89,-1.855,-1.84,-1.82,-1.81,-1.785,-1.77,-1.725,-1.71,-1.68,-1.62,-1.585,-1.565,-1.565,-1.54,-1.49,-1.425,-1.385,-1.36,-1.355,-1.34,-1.3,-1.245,-1.185,-1.125,-1.105,-1.115,-1.12,-1.09,-1.07,-1.035,-1.025,-1.0,-0.97,-0.945,-0.925,-0.92,-0.925,-0.93,-0.9,-0.86,-0.83,-0.82,-0.84,-0.85,-0.835,-0.82,-0.79,-0.805,-0.815,-0.83,-0.81,-0.785,-0.75,-0.78,-0.81,-0.82,-0.8,-0.755,-0.725,-0.72,-0.75,-0.795,-0.8,-0.785,-0.77,-0.745,-0.73,-0.74,-0.745,-0.745,-0.75,-0.76,-0.78,-0.785,-0.78,-0.77,-0.765,-0.76,-0.745,-0.755,-0.765,-0.76,-0.74,-0.72,-0.715,-0.735,-0.745,-0.74,-0.735,-0.72,-0.705,-0.695,-0.68,-0.67,-0.65,-0.63,-0.615,-0.58,-0.535,-0.495,-0.47,-0.45,-0.425,-0.415,-0.4,-0.38,-0.345,-0.335
1.0,107.0,0.47,0.415,0.36,0.32,0.295,0.255,0.23,0.17,0.1,0.055,0.025,-0.015,-0.045,-0.1,-0.135,-0.16,-0.2,-0.2,-0.225,-0.26,-0.28,-0.29,-0.305,-0.315,-0.325,-0.355,-0.385,-0.385,-0.385,-0.39,-0.415,-0.43,-0.435,-0.425,-0.395,-0.375,-0.4,-0.425,-0.445,-0.45,-0.445,-0.445,-0.435,-0.445,-0.46,-0.46,-0.465,-0.445,-0.45,-0.455,-0.475,-0.475,-0.465,-0.47,-0.455,-0.47,-0.485,-0.49,-0.47,-0.44,-0.425,-0.41,-0.38,-0.335,-0.265,-0.2,-0.15,-0.095,-0.05,0.025,0.125,0.24,0.345,0.455,0.585,0.715,0.81,0.915,1.025,1.175,1.315,1.475,1.615,1.735,1.83,1.91,1.94,1.955,1.98,1.98,1.95,1.85,1.72,1.66,1.61,1.495,1.255,1.045,0.935,0.905,0.825,0.69,0.5,0.35,0.145,-0.09,-0.385,-0.64,-0.87,-1.05,-1.185,-1.305,-1.405,-1.515,-1.6,-1.65,-1.645,-1.58,-1.51,-1.425,-1.365,-1.275,-1.23,-1.17,-1.155,-1.145,-1.155,-1.175,-1.19,-1.18,-1.18,-1.17,-1.175,-1.195,-1.21,-1.2,-1.17,-1.155,-1.15,-1.15,-1.145,-1.135,-1.11,-1.105,-1.11,-1.125,-1.145,-1.14,-1.11,-1.12,-1.115,-1.16,-1.22,-1.245,-1.26,-1.27,-1.28,-1.295,-1.295,-1.295,-1.3,-1.315,-1.335,-1.36,-1.375,-1.38,-1.385,-1.4,-1.41,-1.415,-1.435,-1.435,-1.44,-1.42,-1.415,-1.42,-1.43,-1.42,-1.4,-1.375,-1.36,-1.345,-1.33,-1.295,-1.255,-1.22,-1.2,-1.18,-1.165,-1.125,-1.095,-1.045,-1.02,-1.015,-0.99,-0.955,-0.925,-0.9,-0.895,-0.89,-0.88,-0.84,-0.825,-0.78,-0.78,-0.755,-0.735,-0.72,-0.71,-0.705,-0.69,-0.7,-0.69,-0.665,-0.645,-0.66,-0.635,-0.63,-0.65,-0.635,-0.605,-0.59,-0.585,-0.58,-0.6,-0.575,-0.575,-0.565,-0.56,-0.565,-0.58,-0.585,-0.57,-0.565,-0.58,-0.58,-0.57,-0.57,-0.565,-0.55,-0.555,-0.56,-0.56,-0.54,-0.545,-0.53,-0.54,-0.55,-0.57,-0.575,-0.565,-0.54,-0.52,-0.505,-0.515,-0.505,-0.505,-0.495,-0.49,-0.48,-0.485,-0.48,-0.47,-0.46,-0.46,-0.46,-0.485,-0.465,-0.44,-0.425,-0.44,-0.435,-0.445,-0.44,-0.42,-0.41,-0.415,-0.425,-0.44,-0.435,-0.415,-0.405,-0.4,-0.4,-0.41,-0.42,-0.42,-0.4,-0.37,-0.375,-0.385,-0.37,-0.365,-0.36,-0.365,-0.375,-0.39,-0.375,-0.365,-0.335
1.0,107.0,-0.555,-0.54,-0.515,-0.52,-0.53,-0.555,-0.53,-0.5,-0.49,-0.5,-0.53,-0.575,-0.64,-0.71,-0.72,-0.72,-0.72,-0.78,-0.86,-0.92,-0.935,-0.94,-0.955,-0.995,-1.02,-1.055,-1.075,-1.12,-1.18,-1.265,-1.3,-1.305,-1.285,-1.305,-1.34,-1.4,-1.445,-1.455,-1.445,-1.45,-1.48,-1.55,-1.605,-1.605,-1.6,-1.595,-1.595,-1.605,-1.615,-1.61,-1.57,-1.565,-1.575,-1.6,-1.6,-1.595,-1.6,-1.64,-1.68,-1.7,-1.695,-1.68,-1.64,-1.6,-1.58,-1.59,-1.645,-1.7,-1.725,-1.72,-1.72,-1.735,-1.745,-1.79,-1.815,-1.85,-1.835,-1.86,-1.88,-1.915,-1.92,-1.88,-1.84,-1.78,-1.73,-1.745,-1.83,-1.96,-2.11,-2.22,-2.27,-2.3,-2.295,-2.325,-2.355,-2.36,-2.33,-2.245,-2.19,-2.17,-2.16,-2.165,-2.125,-2.07,-2.03,-2.09,-2.185,-2.28,-2.33,-2.34,-2.345,-2.345,-2.335,-2.34,-2.31,-2.245,-2.155,-2.04,-1.94,-1.85,-1.73,-1.635,-1.58,-1.545,-1.51,-1.505,-1.46,-1.425,-1.4,-1.395,-1.395,-1.39,-1.35,-1.325,-1.295,-1.275,-1.255,-1.235,-1.185,-1.125,-1.085,-1.06,-1.07,-1.105,-1.11,-1.08,-1.015,-0.94,-0.855,-0.83,-0.825,-0.84,-0.845,-0.82,-0.83,-0.845,-0.83,-0.8,-0.76,-0.745,-0.76,-0.785,-0.79,-0.79,-0.77,-0.75,-0.735,-0.72,-0.715,-0.715,-0.715,-0.73,-0.735,-0.71,-0.675,-0.64,-0.665,-0.72,-0.765,-0.8,-0.78,-0.775,-0.78,-0.795,-0.84,-0.87,-0.895,-0.88,-0.855,-0.84,-0.86,-0.895,-0.93,-0.945,-1.015,-1.1,-1.14,-1.15,-1.135,-1.13,-1.16,-1.205,-1.23,-1.255,-1.26,-1.26,-1.255,-1.265,-1.275,-1.305,-1.31,-1.31,-1.32,-1.33,-1.31,-1.305,-1.32,-1.355,-1.375,-1.37,-1.355,-1.37,-1.36,-1.35,-1.345,-1.335,-1.36,-1.36,-1.37,-1.355,-1.36,-1.36,-1.355,-1.345,-1.34,-1.34,-1.34,-1.32,-1.305,-1.3,-1.33,-1.37,-1.4,-1.4,-1.375,-1.35,-1.32,-1.305,-1.295,-1.32,-1.335,-1.35,-1.33,-1.315,-1.26,-1.22,-1.21,-1.245,-1.275,-1.325,-1.325,-1.325,-1.325,-1.34,-1.305,-1.28,-1.27,-1.275,-1.3,-1.3,-1.315,-1.325,-1.305,-1.28,-1.26,-1.25,-1.22,-1.205,-1.21,-1.23,-1.23,-1.215,-1.205,-1.235,-1.27,-1.29,-1.28,-1.27,-1.24,-1.22,-1.21,-1.21,-1.2,-1.205,-1.205,-1.205,-1.205,-1.21,-1.195,-1.185
1.0,107.0,0.42,0.385,0.35,0.32,0.305,0.26,0.24,0.215,0.19,0.195,0.215,0.25,0.28,0.275,0.27,0.24,0.25,0.265,0.285,0.265,0.205,0.135,0.085,0.075,0.055,0.075,0.095,0.13,0.135,0.11,0.075,0.045,0.015,0.025,0.02,-0.025,-0.07,-0.125,-0.155,-0.165,-0.17,-0.19,-0.215,-0.235,-0.255,-0.265,-0.29,-0.33,-0.355,-0.385,-0.38,-0.35,-0.32,-0.315,-0.32,-0.34,-0.34,-0.33,-0.32,-0.31,-0.315,-0.33,-0.345,-0.37,-0.39,-0.395,-0.4,-0.415,-0.435,-0.47,-0.515,-0.585,-0.63,-0.64,-0.655,-0.65,-0.655,-0.68,-0.705,-0.715,-0.675,-0.585,-0.47,-0.395,-0.375,-0.41,-0.51,-0.645,-0.8,-0.965,-1.115,-1.23,-1.32,-1.395,-1.39,-1.315,-1.23,-1.175,-1.145,-1.105,-1.0,-0.88,-0.785,-0.815,-0.92,-1.04,-1.16,-1.31,-1.5,-1.725,-1.885,-1.94,-1.905,-1.865,-1.815,-1.74,-1.545,-1.285,-1.0,-0.75,-0.56,-0.42,-0.335,-0.295,-0.26,-0.22,-0.185,-0.145,-0.13,-0.145,-0.13,-0.09,-0.025,-0.005,0.005,0.01,0.04,0.055,0.075,0.09,0.105,0.11,0.13,0.145,0.155,0.185,0.2,0.24,0.26,0.27,0.28,0.295,0.33,0.345,0.355,0.355,0.385,0.4,0.425,0.45,0.465,0.48,0.505,0.53,0.55,0.57,0.595,0.61,0.615,0.62,0.605,0.635,0.68,0.685,0.7,0.69,0.7,0.715,0.745,0.735,0.735,0.72,0.72,0.73,0.74,0.715,0.675,0.635,0.605,0.585,0.57,0.55,0.515,0.485,0.455,0.425,0.415,0.405,0.37,0.335,0.315,0.285,0.255,0.19,0.135,0.11,0.105,0.105,0.11,0.085,0.045,0.015,-0.02,-0.035,-0.03,-0.03,-0.04,-0.04,-0.04,-0.03,-0.005,-0.02,-0.06,-0.12,-0.145,-0.12,-0.08,-0.055,-0.065,-0.095,-0.115,-0.115,-0.09,-0.08,-0.075,-0.085,-0.105,-0.095,-0.075,-0.075,-0.095,-0.105,-0.1,-0.065,-0.025,-0.005,-0.005,-0.02,-0.01,0.02,0.055,0.055,0.055,0.085,0.095,0.13,0.175,0.195,0.195,0.21,0.245,0.27,0.275,0.27,0.265,0.27,0.245,0.225,0.21,0.21,0.23,0.245,0.26,0.26,0.26,0.27,0.265,0.235,0.185,0.14,0.12,0.09,0.055,0.01,-0.025,-0.02,-0.01,-0.025,-0.03,-0.06,-0.105,-0.15,-0.16,-0.16,-0.175,-0.19,-0.185,-0.18,-0.185,-0.175
1.0,107.0,-0.605,-0.595,-0.585,-0.585,-0.56,-0.535,-0.53,-0.57,-0.6,-0.62,-0.63,-0.615,-0.6,-0.615,-0.595,-0.59,-0.57,-0.545,-0.51,-0.48,-0.47,-0.485,-0.495,-0.5,-0.5,-0.51,-0.5,-0.515,-0.52,-0.535,-0.54,-0.545,-0.575,-0.59,-0.58,-0.555,-0.53,-0.505,-0.47,-0.465,-0.445,-0.44,-0.44,-0.465,-0.485,-0.505,-0.485,-0.465,-0.435,-0.43,-0.435,-0.455,-0.485,-0.5,-0.51,-0.51,-0.495,-0.5,-0.5,-0.505,-0.5,-0.49,-0.485,-0.51,-0.55,-0.595,-0.64,-0.68,-0.72,-0.755,-0.765,-0.73,-0.705,-0.73,-0.795,-0.855,-0.88,-0.84,-0.73,-0.6,-0.5,-0.45,-0.465,-0.525,-0.65,-0.81,-1.0,-1.16,-1.28,-1.41,-1.505,-1.6,-1.61,-1.55,-1.445,-1.365,-1.345,-1.32,-1.315,-1.235,-1.09,-0.95,-0.895,-0.925,-1.01,-1.12,-1.245,-1.425,-1.635,-1.86,-2.01,-2.075,-2.05,-1.985,-1.875,-1.73,-1.54,-1.33,-1.11,-0.9,-0.685,-0.525,-0.43,-0.41,-0.4,-0.38,-0.33,-0.3,-0.275,-0.25,-0.21,-0.175,-0.145,-0.145,-0.185,-0.19,-0.16,-0.13,-0.11,-0.075,-0.09,-0.065,-0.035,-0.035,-0.02,-0.02,-0.02,-0.03,-0.005,0.025,0.065,0.09,0.085,0.085,0.1,0.165,0.235,0.295,0.355,0.385,0.425,0.46,0.495,0.53,0.56,0.59,0.615,0.615,0.6,0.59,0.595,0.635,0.685,0.69,0.645,0.595,0.55,0.565,0.59,0.63,0.655,0.66,0.635,0.63,0.615,0.615,0.61,0.575,0.515,0.46,0.42,0.4,0.375,0.355,0.325,0.275,0.23,0.21,0.18,0.145,0.095,0.045,0.025,0.02,0.01,-0.02,-0.05,-0.1,-0.135,-0.155,-0.185,-0.2,-0.225,-0.255,-0.295,-0.32,-0.335,-0.36,-0.37,-0.405,-0.4,-0.4,-0.41,-0.42,-0.44,-0.44,-0.425,-0.395,-0.395,-0.415,-0.44,-0.45,-0.47,-0.48,-0.48,-0.49,-0.49,-0.505,-0.53,-0.525,-0.5,-0.465,-0.455,-0.48,-0.47,-0.465,-0.45,-0.445,-0.47,-0.525,-0.555,-0.57,-0.58,-0.57,-0.57,-0.56,-0.53,-0.505,-0.475,-0.47,-0.48,-0.485,-0.485,-0.495,-0.5,-0.49,-0.485,-0.475,-0.455,-0.455,-0.46,-0.47,-0.495,-0.5,-0.46,-0.4,-0.38,-0.385,-0.425,-0.47,-0.49,-0.47,-0.42,-0.375,-0.37,-0.39,-0.425,-0.455,-0.485,-0.51,-0.51,-0.49,-0.45,-0.44,-0.46,-0.495,-0.525,-0.535,-0.52,-0.5
1.0,107.0,0.76,0.725,0.725,0.71,0.68,0.615,0.57,0.53,0.505,0.46,0.43,0.365,0.305,0.255,0.205,0.17,0.125,0.075,0.015,-0.035,-0.095,-0.125,-0.155,-0.19,-0.245,-0.29,-0.335,-0.345,-0.355,-0.38,-0.4,-0.42,-0.455,-0.485,-0.53,-0.555,-0.575,-0.585,-0.585,-0.555,-0.555,-0.575,-0.595,-0.61,-0.615,-0.61,-0.62,-0.655,-0.685,-0.685,-0.675,-0.67,-0.655,-0.66,-0.665,-0.675,-0.675,-0.66,-0.645,-0.65,-0.665,-0.675,-0.68,-0.655,-0.655,-0.71,-0.75,-0.795,-0.82,-0.85,-0.895,-0.95,-0.99,-0.995,-1.01,-1.01,-1.01,-1.02,-1.02,-1.0,-0.945,-0.88,-0.785,-0.735,-0.72,-0.77,-0.855,-1.015,-1.195,-1.34,-1.42,-1.48,-1.515,-1.515,-1.455,-1.3,-1.11,-0.94,-0.815,-0.75,-0.72,-0.7,-0.695,-0.695,-0.7,-0.785,-1.01,-1.36,-1.755,-2.07,-2.225,-2.23,-2.19,-2.16,-2.105,-2.03,-1.875,-1.655,-1.415,-1.19,-0.965,-0.755,-0.62,-0.56,-0.56,-0.555,-0.545,-0.55,-0.535,-0.5,-0.445,-0.385,-0.345,-0.32,-0.31,-0.28,-0.255,-0.26,-0.275,-0.295,-0.265,-0.22,-0.185,-0.17,-0.19,-0.22,-0.23,-0.225,-0.195,-0.18,-0.155,-0.135,-0.135,-0.105,-0.075,-0.065,-0.035,-0.01,-0.005,-0.005,-0.025,-0.04,-0.04,0.0,0.015,0.055,0.075,0.075,0.08,0.09,0.09,0.11,0.155,0.17,0.18,0.165,0.125,0.09,0.095,0.11,0.15,0.155,0.15,0.145,0.155,0.16,0.165,0.165,0.165,0.18,0.17,0.145,0.12,0.115,0.11,0.105,0.125,0.12,0.095,0.045,0.01,0.0,0.01,0.01,0.015,0.0,-0.02,-0.04,-0.09,-0.155,-0.17,-0.18,-0.155,-0.14,-0.145,-0.14,-0.125,-0.115,-0.105,-0.09,-0.065,-0.075,-0.075,-0.07,-0.055,-0.025,0.005,0.025,0.025,-0.01,-0.06,-0.095,-0.1,-0.1,-0.11,-0.115,-0.08,-0.045,-0.02,-0.015,-0.02,-0.07,-0.115,-0.16,-0.17,-0.22,-0.25,-0.275,-0.29,-0.31,-0.31,-0.33,-0.345,-0.36,-0.385,-0.4,-0.385,-0.405,-0.425,-0.445,-0.45,-0.445,-0.445,-0.45,-0.465,-0.455,-0.45,-0.43,-0.43,-0.46,-0.49,-0.5,-0.515,-0.495,-0.455,-0.45,-0.455,-0.48,-0.515,-0.5,-0.485,-0.515,-0.525,-0.535,-0.525,-0.51,-0.475,-0.485,-0.49,-0.49,-0.485,-0.465,-0.46,-0.48,-0.49,-0.5,-0.48,-0.46,-0.43,-0.455
1.0,107.0,0.92,0.92,0.895,0.865,0.84,0.805,0.785,0.745,0.68,0.615,0.55,0.525,0.5,0.455,0.41,0.35,0.285,0.235,0.17,0.115,0.04,-0.005,-0.08,-0.16,-0.22,-0.275,-0.33,-0.39,-0.445,-0.47,-0.48,-0.5,-0.52,-0.55,-0.585,-0.605,-0.63,-0.64,-0.655,-0.685,-0.69,-0.685,-0.67,-0.67,-0.685,-0.695,-0.73,-0.73,-0.745,-0.72,-0.715,-0.715,-0.73,-0.745,-0.76,-0.76,-0.77,-0.78,-0.785,-0.775,-0.76,-0.745,-0.775,-0.785,-0.81,-0.825,-0.83,-0.87,-0.895,-0.92,-0.94,-0.955,-1.01,-1.065,-1.105,-1.11,-1.145,-1.145,-1.155,-1.12,-1.1,-1.03,-0.95,-0.86,-0.82,-0.87,-1.005,-1.185,-1.35,-1.41,-1.435,-1.45,-1.485,-1.495,-1.38,-1.15,-0.875,-0.665,-0.545,-0.5,-0.48,-0.43,-0.395,-0.415,-0.56,-0.86,-1.27,-1.705,-2.065,-2.275,-2.335,-2.315,-2.3,-2.28,-2.225,-2.085,-1.87,-1.62,-1.39,-1.14,-0.92,-0.765,-0.69,-0.69,-0.71,-0.71,-0.695,-0.675,-0.64,-0.6,-0.545,-0.505,-0.465,-0.465,-0.46,-0.445,-0.415,-0.38,-0.37,-0.365,-0.365,-0.385,-0.41,-0.41,-0.39,-0.365,-0.325,-0.31,-0.295,-0.27,-0.25,-0.215,-0.195,-0.185,-0.2,-0.185,-0.16,-0.14,-0.14,-0.135,-0.135,-0.12,-0.1,-0.075,-0.085,-0.085,-0.06,-0.015,0.02,0.035,0.04,0.07,0.095,0.115,0.115,0.065,0.025,0.0,0.015,0.05,0.065,0.065,0.06,0.06,0.045,0.03,0.02,0.02,0.03,0.025,0.01,0.0,0.0,0.025,0.005,-0.03,-0.08,-0.095,-0.11,-0.125,-0.15,-0.18,-0.21,-0.21,-0.215,-0.205,-0.21,-0.23,-0.28,-0.345,-0.39,-0.415,-0.42,-0.445,-0.47,-0.485,-0.475,-0.46,-0.45,-0.455,-0.46,-0.48,-0.495,-0.495,-0.5,-0.51,-0.505,-0.48,-0.465,-0.485,-0.52,-0.55,-0.57,-0.55,-0.54,-0.53,-0.525,-0.53,-0.525,-0.505,-0.47,-0.455,-0.455,-0.465,-0.465,-0.44,-0.39,-0.35,-0.315,-0.29,-0.265,-0.23,-0.215,-0.22,-0.215,-0.205,-0.19,-0.175,-0.185,-0.215,-0.23,-0.255,-0.26,-0.24,-0.205,-0.19,-0.205,-0.23,-0.23,-0.22,-0.205,-0.22,-0.245,-0.305,-0.375,-0.39,-0.4,-0.415,-0.45,-0.5,-0.55,-0.545,-0.52,-0.52,-0.555,-0.59,-0.615,-0.625,-0.61,-0.595,-0.58,-0.585,-0.59,-0.605,-0.605,-0.615,-0.605,-0.59,-0.585,-0.59
1.0,107.0,1.29,1.305,1.325,1.315,1.295,1.25,1.225,1.21,1.2,1.16,1.12,1.05,1.02,0.97,0.94,0.9,0.845,0.745,0.66,0.585,0.52,0.45,0.395,0.33,0.295,0.25,0.185,0.135,0.07,0.025,-0.02,-0.05,-0.095,-0.15,-0.21,-0.27,-0.315,-0.34,-0.35,-0.38,-0.4,-0.445,-0.47,-0.475,-0.47,-0.485,-0.5,-0.535,-0.555,-0.575,-0.57,-0.57,-0.58,-0.625,-0.64,-0.645,-0.635,-0.64,-0.65,-0.66,-0.67,-0.67,-0.68,-0.69,-0.7,-0.71,-0.71,-0.715,-0.74,-0.78,-0.85,-0.915,-0.995,-1.05,-1.065,-1.085,-1.085,-1.12,-1.15,-1.16,-1.145,-1.105,-1.035,-0.955,-0.915,-0.92,-1.015,-1.2,-1.44,-1.645,-1.765,-1.795,-1.845,-1.915,-1.955,-1.885,-1.7,-1.485,-1.32,-1.255,-1.24,-1.23,-1.19,-1.135,-1.11,-1.23,-1.465,-1.785,-2.08,-2.29,-2.39,-2.415,-2.405,-2.375,-2.295,-2.16,-1.95,-1.67,-1.37,-1.095,-0.85,-0.66,-0.6,-0.595,-0.605,-0.585,-0.535,-0.49,-0.46,-0.435,-0.42,-0.385,-0.33,-0.275,-0.245,-0.22,-0.23,-0.24,-0.22,-0.185,-0.155,-0.125,-0.135,-0.145,-0.13,-0.095,-0.075,-0.05,-0.04,-0.05,-0.03,0.005,0.035,0.075,0.085,0.08,0.095,0.125,0.14,0.15,0.16,0.145,0.175,0.21,0.255,0.275,0.28,0.25,0.245,0.265,0.29,0.34,0.37,0.38,0.36,0.35,0.34,0.335,0.33,0.33,0.35,0.35,0.345,0.33,0.29,0.25,0.24,0.255,0.25,0.225,0.21,0.175,0.155,0.135,0.135,0.115,0.065,0.02,-0.02,-0.065,-0.06,-0.07,-0.105,-0.135,-0.155,-0.2,-0.225,-0.255,-0.275,-0.295,-0.31,-0.295,-0.31,-0.32,-0.365,-0.395,-0.4,-0.38,-0.355,-0.365,-0.37,-0.385,-0.37,-0.37,-0.37,-0.38,-0.38,-0.385,-0.35,-0.31,-0.28,-0.275,-0.265,-0.25,-0.215,-0.195,-0.17,-0.155,-0.145,-0.125,-0.11,-0.11,-0.125,-0.14,-0.16,-0.19,-0.195,-0.17,-0.12,-0.105,-0.095,-0.115,-0.13,-0.165,-0.19,-0.205,-0.215,-0.245,-0.245,-0.265,-0.295,-0.34,-0.385,-0.415,-0.395,-0.395,-0.385,-0.4,-0.435,-0.455,-0.47,-0.45,-0.455,-0.46,-0.49,-0.545,-0.565,-0.56,-0.53,-0.52,-0.52,-0.54,-0.525,-0.515,-0.505,-0.515,-0.525,-0.55,-0.525,-0.525,-0.52,-0.535,-0.535,-0.53,-0.51,-0.515,-0.51,-0.51,-0.495,-0.5
1.0,107.0,1.17,1.135,1.11,1.075,1.05,1.015,1.0,1.005,0.955,0.885,0.81,0.72,0.65,0.585,0.555,0.525,0.485,0.425,0.395,0.35,0.305,0.24,0.16,0.105,0.085,0.085,0.07,0.04,0.015,-0.005,-0.005,-0.015,-0.04,-0.065,-0.075,-0.075,-0.065,-0.07,-0.07,-0.1,-0.13,-0.14,-0.14,-0.145,-0.155,-0.175,-0.175,-0.17,-0.16,-0.15,-0.155,-0.16,-0.165,-0.145,-0.14,-0.145,-0.155,-0.16,-0.165,-0.17,-0.17,-0.19,-0.2,-0.21,-0.205,-0.225,-0.235,-0.275,-0.32,-0.38,-0.405,-0.45,-0.465,-0.45,-0.46,-0.495,-0.51,-0.525,-0.505,-0.455,-0.395,-0.335,-0.295,-0.29,-0.32,-0.41,-0.565,-0.74,-0.925,-1.015,-1.045,-1.075,-1.1,-1.105,-1.005,-0.825,-0.645,-0.51,-0.44,-0.425,-0.41,-0.355,-0.29,-0.285,-0.39,-0.63,-0.945,-1.245,-1.445,-1.54,-1.535,-1.5,-1.48,-1.43,-1.36,-1.245,-1.115,-0.945,-0.78,-0.56,-0.335,-0.155,-0.075,-0.075,-0.095,-0.085,-0.08,-0.05,-0.02,0.03,0.055,0.07,0.085,0.085,0.07,0.085,0.095,0.13,0.14,0.165,0.175,0.185,0.18,0.2,0.22,0.235,0.235,0.215,0.195,0.21,0.235,0.23,0.255,0.285,0.325,0.355,0.34,0.32,0.285,0.285,0.305,0.34,0.38,0.4,0.39,0.385,0.375,0.4,0.41,0.42,0.42,0.42,0.43,0.425,0.44,0.455,0.465,0.485,0.485,0.485,0.48,0.46,0.45,0.455,0.485,0.5,0.525,0.52,0.5,0.51,0.53,0.59,0.635,0.665,0.69,0.69,0.68,0.69,0.715,0.735,0.74,0.715,0.69,0.645,0.605,0.57,0.54,0.495,0.51,0.52,0.54,0.52,0.475,0.435,0.395,0.385,0.37,0.34,0.31,0.275,0.245,0.21,0.155,0.105,0.07,0.05,0.02,0.02,0.015,0.01,-0.015,-0.045,-0.07,-0.085,-0.07,-0.075,-0.085,-0.08,-0.085,-0.08,-0.08,-0.085,-0.08,-0.09,-0.095,-0.095,-0.08,-0.075,-0.065,-0.065,-0.07,-0.08,-0.085,-0.095,-0.12,-0.14,-0.13,-0.09,-0.075,-0.07,-0.095,-0.115,-0.135,-0.125,-0.11,-0.09,-0.1,-0.095,-0.095,-0.085,-0.075,-0.08,-0.08,-0.085,-0.11,-0.11,-0.105,-0.105,-0.11,-0.115,-0.125,-0.11,-0.115,-0.105,-0.08,-0.065,-0.065,-0.05,-0.065,-0.08,-0.09,-0.095,-0.09,-0.06,-0.045,-0.02,-0.02,-0.025,-0.05,-0.065
1.0,107.0,-0.425,-0.425,-0.45,-0.485,-0.51,-0.5,-0.5,-0.495,-0.525,-0.55,-0.57,-0.56,-0.56,-0.575,-0.59,-0.6,-0.61,-0.615,-0.61,-0.61,-0.62,-0.64,-0.67,-0.68,-0.675,-0.67,-0.66,-0.665,-0.65,-0.655,-0.645,-0.62,-0.63,-0.635,-0.635,-0.65,-0.64,-0.62,-0.635,-0.64,-0.645,-0.635,-0.63,-0.635,-0.635,-0.635,-0.62,-0.6,-0.585,-0.575,-0.575,-0.61,-0.635,-0.635,-0.635,-0.63,-0.64,-0.635,-0.625,-0.64,-0.64,-0.65,-0.665,-0.665,-0.675,-0.7,-0.735,-0.76,-0.81,-0.855,-0.9,-0.915,-0.93,-0.935,-0.94,-0.93,-0.935,-0.915,-0.87,-0.8,-0.715,-0.645,-0.62,-0.6,-0.625,-0.68,-0.815,-0.965,-1.09,-1.165,-1.22,-1.285,-1.295,-1.23,-1.11,-0.945,-0.84,-0.8,-0.795,-0.74,-0.63,-0.495,-0.465,-0.58,-0.815,-1.055,-1.275,-1.52,-1.785,-2.015,-2.165,-2.235,-2.205,-2.1,-1.96,-1.76,-1.545,-1.315,-1.105,-0.865,-0.665,-0.57,-0.555,-0.585,-0.6,-0.58,-0.555,-0.52,-0.49,-0.465,-0.44,-0.41,-0.375,-0.355,-0.375,-0.365,-0.36,-0.34,-0.325,-0.315,-0.32,-0.335,-0.32,-0.31,-0.295,-0.26,-0.245,-0.245,-0.23,-0.23,-0.21,-0.22,-0.22,-0.2,-0.185,-0.16,-0.13,-0.125,-0.13,-0.135,-0.135,-0.14,-0.12,-0.11,-0.11,-0.105,-0.095,-0.065,-0.04,-0.01,-0.005,0.005,-0.005,-0.005,0.025,0.03,0.045,0.02,0.0,0.0,-0.005,0.01,0.015,0.015,0.015,0.025,0.04,0.035,0.02,0.01,0.0,0.0,0.005,0.02,0.005,-0.01,-0.025,-0.04,-0.055,-0.08,-0.115,-0.145,-0.145,-0.11,-0.105,-0.1,-0.125,-0.135,-0.17,-0.175,-0.16,-0.125,-0.1,-0.07,-0.08,-0.085,-0.115,-0.125,-0.125,-0.11,-0.11,-0.085,-0.055,-0.03,-0.05,-0.085,-0.135,-0.145,-0.13,-0.125,-0.135,-0.15,-0.155,-0.14,-0.145,-0.12,-0.125,-0.135,-0.16,-0.19,-0.22,-0.235,-0.265,-0.31,-0.34,-0.37,-0.38,-0.405,-0.435,-0.47,-0.495,-0.52,-0.515,-0.51,-0.535,-0.545,-0.575,-0.575,-0.575,-0.58,-0.585,-0.575,-0.59,-0.59,-0.58,-0.575,-0.59,-0.595,-0.615,-0.63,-0.625,-0.61,-0.595,-0.565,-0.565,-0.575,-0.59,-0.625,-0.655,-0.69,-0.685,-0.66,-0.635,-0.63,-0.63,-0.655,-0.665,-0.655,-0.66,-0.665,-0.67,-0.68,-0.67,-0.65,-0.635,-0.63,-0.63,-0.64,-0.645,-0.635
1.0,107.0,0.725,0.705,0.7,0.7,0.69,0.655,0.615,0.585,0.57,0.53,0.505,0.46,0.41,0.37,0.335,0.32,0.285,0.235,0.16,0.095,0.045,0.01,-0.035,-0.085,-0.14,-0.19,-0.215,-0.23,-0.245,-0.285,-0.34,-0.415,-0.44,-0.455,-0.455,-0.455,-0.49,-0.515,-0.52,-0.555,-0.56,-0.565,-0.56,-0.565,-0.56,-0.58,-0.595,-0.615,-0.635,-0.64,-0.635,-0.63,-0.625,-0.64,-0.66,-0.67,-0.655,-0.645,-0.635,-0.65,-0.695,-0.74,-0.76,-0.735,-0.735,-0.725,-0.76,-0.785,-0.815,-0.845,-0.865,-0.91,-0.955,-1.01,-1.025,-1.04,-1.05,-1.05,-1.065,-1.05,-1.005,-0.935,-0.86,-0.795,-0.76,-0.79,-0.86,-0.99,-1.16,-1.315,-1.38,-1.42,-1.44,-1.44,-1.375,-1.21,-0.985,-0.785,-0.64,-0.58,-0.535,-0.53,-0.495,-0.46,-0.45,-0.565,-0.85,-1.23,-1.65,-1.99,-2.155,-2.175,-2.17,-2.145,-2.09,-1.985,-1.805,-1.565,-1.365,-1.14,-0.925,-0.72,-0.59,-0.535,-0.535,-0.52,-0.525,-0.515,-0.52,-0.51,-0.505,-0.475,-0.435,-0.415,-0.38,-0.35,-0.32,-0.305,-0.29,-0.295,-0.285,-0.27,-0.265,-0.25,-0.25,-0.265,-0.255,-0.245,-0.21,-0.195,-0.185,-0.21,-0.195,-0.195,-0.17,-0.145,-0.14,-0.12,-0.1,-0.085,-0.055,-0.05,-0.05,-0.05,-0.01,-0.005,-0.005,0.0,0.01,0.02,0.035,0.055,0.07,0.05,0.025,0.015,0.05,0.08,0.11,0.105,0.095,0.08,0.09,0.095,0.12,0.11,0.09,0.065,0.06,0.065,0.065,0.05,0.045,0.03,0.03,0.025,0.025,0.025,0.02,0.005,0.01,-0.005,-0.025,-0.07,-0.11,-0.13,-0.115,-0.11,-0.13,-0.16,-0.165,-0.185,-0.19,-0.215,-0.25,-0.28,-0.32,-0.315,-0.32,-0.32,-0.315,-0.32,-0.325,-0.325,-0.305,-0.295,-0.285,-0.285,-0.27,-0.25,-0.22,-0.195,-0.145,-0.135,-0.11,-0.095,-0.08,-0.06,-0.035,-0.025,-0.025,-0.065,-0.105,-0.135,-0.13,-0.12,-0.115,-0.13,-0.14,-0.135,-0.14,-0.155,-0.16,-0.175,-0.175,-0.185,-0.195,-0.22,-0.235,-0.275,-0.3,-0.305,-0.31,-0.335,-0.365,-0.405,-0.41,-0.42,-0.4,-0.41,-0.42,-0.45,-0.455,-0.46,-0.445,-0.47,-0.49,-0.515,-0.545,-0.54,-0.535,-0.535,-0.535,-0.53,-0.505,-0.505,-0.5,-0.49,-0.5,-0.49,-0.515,-0.535,-0.54,-0.55,-0.55,-0.545,-0.53,-0.505,-0.48,-0.485
1.0,107.0,0.295,0.245,0.185,0.125,0.065,0.025,0.01,-0.02,-0.07,-0.105,-0.145,-0.165,-0.185,-0.215,-0.235,-0.245,-0.26,-0.26,-0.255,-0.275,-0.295,-0.315,-0.33,-0.335,-0.325,-0.32,-0.345,-0.35,-0.355,-0.355,-0.36,-0.345,-0.355,-0.365,-0.375,-0.37,-0.37,-0.39,-0.415,-0.41,-0.405,-0.385,-0.38,-0.39,-0.41,-0.41,-0.4,-0.385,-0.385,-0.395,-0.395,-0.38,-0.385,-0.39,-0.375,-0.38,-0.385,-0.39,-0.385,-0.37,-0.36,-0.365,-0.365,-0.38,-0.375,-0.375,-0.39,-0.405,-0.415,-0.445,-0.465,-0.52,-0.55,-0.6,-0.64,-0.69,-0.7,-0.7,-0.725,-0.755,-0.76,-0.715,-0.62,-0.515,-0.465,-0.495,-0.595,-0.765,-0.99,-1.215,-1.415,-1.575,-1.705,-1.825,-1.925,-1.975,-1.915,-1.85,-1.835,-1.865,-1.88,-1.79,-1.67,-1.565,-1.545,-1.605,-1.685,-1.77,-1.835,-1.94,-2.015,-2.07,-2.075,-1.995,-1.895,-1.72,-1.52,-1.255,-0.99,-0.735,-0.515,-0.35,-0.28,-0.265,-0.255,-0.24,-0.205,-0.17,-0.135,-0.085,-0.05,0.005,0.035,0.045,0.05,0.06,0.065,0.095,0.11,0.12,0.125,0.135,0.155,0.17,0.2,0.205,0.21,0.205,0.215,0.245,0.28,0.3,0.315,0.315,0.335,0.355,0.38,0.405,0.405,0.425,0.435,0.46,0.485,0.495,0.51,0.53,0.53,0.57,0.595,0.625,0.63,0.625,0.62,0.64,0.65,0.66,0.645,0.655,0.65,0.645,0.65,0.65,0.63,0.625,0.615,0.61,0.59,0.555,0.52,0.5,0.48,0.46,0.445,0.415,0.38,0.35,0.33,0.315,0.29,0.265,0.24,0.235,0.225,0.225,0.225,0.23,0.235,0.25,0.275,0.315,0.34,0.33,0.33,0.325,0.34,0.345,0.315,0.25,0.19,0.155,0.145,0.155,0.145,0.145,0.125,0.105,0.085,0.07,0.08,0.05,0.005,-0.03,-0.06,-0.07,-0.1,-0.115,-0.155,-0.2,-0.235,-0.255,-0.26,-0.265,-0.295,-0.3,-0.325,-0.335,-0.32,-0.32,-0.33,-0.36,-0.375,-0.355,-0.355,-0.36,-0.375,-0.385,-0.385,-0.36,-0.345,-0.355,-0.36,-0.37,-0.37,-0.37,-0.37,-0.385,-0.415,-0.41,-0.39,-0.365,-0.36,-0.37,-0.385,-0.405,-0.405,-0.395,-0.38,-0.385,-0.4,-0.41,-0.41,-0.405,-0.395,-0.39,-0.385,-0.395,-0.415,-0.415,-0.405,-0.395,-0.4,-0.395,-0.41,-0.405,-0.395,-0.395,-0.41,-0.41,-0.425,-0.41
1.0,107.0,0.78,0.745,0.675,0.6,0.55,0.525,0.5,0.47,0.42,0.38,0.33,0.275,0.245,0.225,0.185,0.13,0.08,0.035,0.005,-0.015,-0.035,-0.075,-0.11,-0.13,-0.145,-0.15,-0.145,-0.165,-0.175,-0.2,-0.21,-0.215,-0.23,-0.24,-0.26,-0.27,-0.245,-0.215,-0.205,-0.205,-0.225,-0.22,-0.19,-0.16,-0.15,-0.12,-0.085,-0.03,0.02,0.06,0.065,0.06,0.055,0.05,0.085,0.125,0.12,0.08,0.035,0.0,-0.005,0.01,0.005,0.015,0.005,-0.01,-0.045,-0.085,-0.145,-0.215,-0.285,-0.35,-0.4,-0.42,-0.45,-0.495,-0.54,-0.6,-0.635,-0.62,-0.56,-0.505,-0.45,-0.43,-0.465,-0.545,-0.73,-1.0,-1.305,-1.535,-1.69,-1.8,-1.935,-2.045,-2.08,-2.035,-1.97,-1.93,-1.925,-1.87,-1.755,-1.61,-1.51,-1.495,-1.55,-1.625,-1.71,-1.83,-1.96,-2.055,-2.12,-2.115,-2.105,-2.035,-1.92,-1.775,-1.55,-1.28,-1.04,-0.82,-0.635,-0.5,-0.445,-0.425,-0.41,-0.4,-0.36,-0.305,-0.26,-0.225,-0.22,-0.2,-0.185,-0.175,-0.145,-0.13,-0.105,-0.085,-0.065,-0.035,-0.025,-0.01,-0.005,-0.005,0.01,0.03,0.035,0.06,0.08,0.11,0.14,0.155,0.165,0.18,0.2,0.23,0.265,0.285,0.295,0.305,0.31,0.335,0.37,0.395,0.41,0.43,0.475,0.49,0.5,0.525,0.54,0.55,0.57,0.57,0.59,0.61,0.63,0.625,0.63,0.635,0.635,0.655,0.65,0.645,0.6,0.575,0.555,0.545,0.535,0.525,0.49,0.46,0.44,0.41,0.38,0.335,0.3,0.275,0.255,0.235,0.19,0.14,0.095,0.075,0.04,0.015,-0.01,-0.03,-0.065,-0.09,-0.095,-0.1,-0.125,-0.155,-0.175,-0.185,-0.18,-0.185,-0.22,-0.235,-0.265,-0.25,-0.22,-0.215,-0.22,-0.25,-0.28,-0.3,-0.29,-0.27,-0.26,-0.26,-0.27,-0.245,-0.24,-0.235,-0.245,-0.255,-0.265,-0.265,-0.245,-0.24,-0.24,-0.245,-0.245,-0.245,-0.24,-0.215,-0.2,-0.19,-0.2,-0.225,-0.23,-0.23,-0.225,-0.23,-0.225,-0.225,-0.215,-0.2,-0.205,-0.225,-0.22,-0.21,-0.19,-0.195,-0.21,-0.225,-0.225,-0.23,-0.22,-0.215,-0.21,-0.22,-0.23,-0.22,-0.215,-0.21,-0.22,-0.215,-0.21,-0.21,-0.205,-0.21,-0.21,-0.23,-0.22,-0.23,-0.205,-0.175,-0.155,-0.15,-0.165,-0.15,-0.14,-0.09,-0.045,0.01,0.055,0.07
1.0,107.0,1.405,1.415,1.41,1.385,1.35,1.31,1.3,1.27,1.245,1.2,1.145,1.09,1.04,0.99,0.94,0.895,0.85,0.81,0.755,0.71,0.655,0.59,0.53,0.46,0.425,0.4,0.35,0.3,0.24,0.195,0.155,0.115,0.085,0.035,-0.03,-0.085,-0.125,-0.16,-0.15,-0.17,-0.2,-0.24,-0.26,-0.28,-0.285,-0.295,-0.335,-0.37,-0.39,-0.395,-0.39,-0.395,-0.405,-0.435,-0.43,-0.445,-0.42,-0.42,-0.445,-0.465,-0.49,-0.5,-0.485,-0.495,-0.51,-0.54,-0.58,-0.615,-0.635,-0.675,-0.72,-0.78,-0.8,-0.805,-0.81,-0.835,-0.89,-0.915,-0.91,-0.865,-0.805,-0.755,-0.735,-0.77,-0.885,-1.04,-1.25,-1.49,-1.695,-1.81,-1.895,-1.945,-1.98,-2.01,-1.935,-1.805,-1.63,-1.47,-1.35,-1.295,-1.27,-1.275,-1.275,-1.25,-1.265,-1.38,-1.58,-1.81,-2.0,-2.125,-2.135,-2.115,-2.095,-2.105,-2.045,-1.92,-1.715,-1.46,-1.195,-0.965,-0.695,-0.47,-0.325,-0.315,-0.33,-0.345,-0.335,-0.305,-0.275,-0.275,-0.26,-0.24,-0.19,-0.145,-0.115,-0.1,-0.085,-0.085,-0.065,-0.05,-0.015,-0.005,0.005,-0.015,0.005,0.035,0.07,0.08,0.105,0.11,0.11,0.13,0.135,0.135,0.105,0.105,0.145,0.18,0.22,0.25,0.255,0.275,0.31,0.33,0.325,0.29,0.28,0.295,0.33,0.365,0.4,0.405,0.405,0.375,0.385,0.4,0.425,0.445,0.435,0.425,0.42,0.42,0.425,0.435,0.41,0.39,0.38,0.375,0.365,0.36,0.345,0.325,0.33,0.32,0.31,0.265,0.225,0.175,0.15,0.155,0.13,0.1,0.065,0.025,-0.005,-0.035,-0.075,-0.125,-0.155,-0.16,-0.165,-0.17,-0.18,-0.18,-0.195,-0.22,-0.245,-0.25,-0.24,-0.265,-0.285,-0.3,-0.285,-0.27,-0.25,-0.26,-0.275,-0.275,-0.26,-0.26,-0.25,-0.25,-0.225,-0.21,-0.185,-0.165,-0.12,-0.09,-0.04,-0.04,-0.01,0.02,0.03,0.03,0.025,0.065,0.115,0.13,0.105,0.08,0.045,0.05,0.045,0.03,0.01,-0.005,0.01,0.015,0.01,0.005,-0.035,-0.07,-0.09,-0.105,-0.135,-0.155,-0.175,-0.185,-0.23,-0.255,-0.285,-0.295,-0.32,-0.365,-0.395,-0.39,-0.38,-0.39,-0.39,-0.405,-0.43,-0.45,-0.45,-0.445,-0.42,-0.41,-0.415,-0.425,-0.43,-0.42,-0.415,-0.435,-0.45,-0.47,-0.47,-0.455,-0.455,-0.475,-0.48,-0.475
1.0,107.0,0.605,0.585,0.57,0.59,0.595,0.605,0.605,0.595,0.58,0.595,0.585,0.59,0.585,0.56,0.53,0.515,0.515,0.52,0.52,0.495,0.47,0.435,0.405,0.385,0.345,0.31,0.27,0.23,0.205,0.195,0.165,0.135,0.07,0.05,0.02,-0.03,-0.07,-0.115,-0.145,-0.17,-0.185,-0.225,-0.3,-0.345,-0.4,-0.39,-0.405,-0.42,-0.43,-0.45,-0.47,-0.475,-0.48,-0.5,-0.535,-0.57,-0.595,-0.575,-0.55,-0.545,-0.565,-0.58,-0.58,-0.59,-0.575,-0.57,-0.59,-0.58,-0.595,-0.59,-0.595,-0.59,-0.595,-0.605,-0.615,-0.62,-0.605,-0.6,-0.605,-0.625,-0.625,-0.625,-0.62,-0.6,-0.575,-0.56,-0.52,-0.485,-0.43,-0.375,-0.295,-0.24,-0.195,-0.125,-0.04,0.065,0.165,0.275,0.39,0.535,0.655,0.73,0.81,0.905,1.01,1.155,1.29,1.42,1.525,1.595,1.645,1.655,1.655,1.62,1.61,1.55,1.435,1.275,1.145,1.065,0.915,0.635,0.355,0.215,0.19,0.125,-0.025,-0.215,-0.38,-0.525,-0.69,-0.905,-1.11,-1.31,-1.48,-1.585,-1.655,-1.715,-1.78,-1.84,-1.865,-1.845,-1.79,-1.715,-1.625,-1.545,-1.45,-1.355,-1.275,-1.245,-1.24,-1.255,-1.265,-1.275,-1.27,-1.275,-1.29,-1.31,-1.34,-1.34,-1.345,-1.345,-1.345,-1.36,-1.375,-1.385,-1.395,-1.4,-1.405,-1.435,-1.46,-1.47,-1.475,-1.475,-1.485,-1.5,-1.525,-1.53,-1.53,-1.54,-1.55,-1.555,-1.555,-1.55,-1.54,-1.54,-1.53,-1.53,-1.525,-1.515,-1.495,-1.475,-1.48,-1.47,-1.475,-1.45,-1.42,-1.39,-1.365,-1.33,-1.29,-1.255,-1.205,-1.155,-1.105,-1.07,-1.03,-0.95,-0.89,-0.815,-0.73,-0.68,-0.645,-0.595,-0.55,-0.485,-0.445,-0.405,-0.36,-0.325,-0.31,-0.315,-0.32,-0.32,-0.335,-0.335,-0.335,-0.315,-0.315,-0.3,-0.325,-0.33,-0.34,-0.335,-0.34,-0.375,-0.405,-0.425,-0.43,-0.435,-0.46,-0.49,-0.54,-0.545,-0.56,-0.575,-0.58,-0.61,-0.635,-0.645,-0.635,-0.64,-0.655,-0.655,-0.67,-0.685,-0.685,-0.68,-0.675,-0.685,-0.695,-0.695,-0.685,-0.675,-0.69,-0.7,-0.705,-0.705,-0.705,-0.685,-0.695,-0.7,-0.71,-0.7,-0.695,-0.685,-0.71,-0.705,-0.71,-0.705,-0.695,-0.69,-0.7,-0.695,-0.69,-0.68,-0.685,-0.65,-0.66,-0.655,-0.665,-0.67,-0.66,-0.65,-0.65,-0.67,-0.665,-0.665,-0.655,-0.64
1.0,107.0,0.71,0.685,0.65,0.61,0.58,0.525,0.48,0.43,0.395,0.35,0.31,0.265,0.235,0.22,0.2,0.155,0.12,0.085,0.07,0.085,0.08,0.085,0.075,0.045,0.025,0.01,-0.005,0.0,0.0,-0.04,-0.075,-0.12,-0.165,-0.21,-0.25,-0.275,-0.28,-0.29,-0.285,-0.31,-0.335,-0.365,-0.375,-0.395,-0.425,-0.465,-0.505,-0.515,-0.53,-0.545,-0.575,-0.615,-0.64,-0.665,-0.685,-0.695,-0.695,-0.715,-0.72,-0.74,-0.745,-0.745,-0.78,-0.76,-0.785,-0.815,-0.83,-0.84,-0.87,-0.915,-0.995,-1.03,-1.055,-1.075,-1.08,-1.13,-1.155,-1.195,-1.205,-1.165,-1.105,-1.06,-1.03,-1.05,-1.12,-1.265,-1.47,-1.74,-1.935,-2.075,-2.16,-2.22,-2.285,-2.36,-2.375,-2.325,-2.22,-2.16,-2.13,-2.12,-2.095,-2.05,-2.0,-1.945,-1.92,-1.985,-2.065,-2.19,-2.315,-2.395,-2.4,-2.365,-2.34,-2.355,-2.325,-2.225,-2.06,-1.805,-1.525,-1.275,-1.055,-0.885,-0.76,-0.71,-0.695,-0.68,-0.625,-0.56,-0.51,-0.475,-0.455,-0.41,-0.38,-0.36,-0.335,-0.34,-0.33,-0.305,-0.27,-0.23,-0.215,-0.21,-0.2,-0.18,-0.16,-0.145,-0.135,-0.12,-0.095,-0.065,-0.04,-0.015,0.0,0.0,0.015,0.045,0.085,0.12,0.135,0.145,0.165,0.195,0.24,0.26,0.275,0.28,0.285,0.305,0.35,0.37,0.405,0.4,0.425,0.425,0.44,0.45,0.465,0.46,0.47,0.48,0.5,0.495,0.495,0.48,0.47,0.46,0.455,0.45,0.44,0.41,0.365,0.335,0.325,0.315,0.28,0.24,0.195,0.17,0.15,0.11,0.08,0.025,-0.01,-0.05,-0.085,-0.11,-0.14,-0.205,-0.23,-0.255,-0.275,-0.295,-0.31,-0.355,-0.375,-0.405,-0.4,-0.415,-0.415,-0.435,-0.45,-0.455,-0.455,-0.445,-0.45,-0.455,-0.455,-0.475,-0.48,-0.47,-0.475,-0.48,-0.495,-0.5,-0.49,-0.48,-0.48,-0.485,-0.485,-0.49,-0.48,-0.475,-0.48,-0.485,-0.49,-0.485,-0.485,-0.47,-0.455,-0.47,-0.47,-0.48,-0.475,-0.455,-0.45,-0.46,-0.46,-0.475,-0.45,-0.45,-0.44,-0.455,-0.44,-0.455,-0.435,-0.43,-0.42,-0.41,-0.405,-0.385,-0.37,-0.34,-0.33,-0.305,-0.295,-0.265,-0.245,-0.21,-0.19,-0.18,-0.19,-0.175,-0.14,-0.095,-0.09,-0.085,-0.12,-0.15,-0.165,-0.16,-0.175,-0.175,-0.18,-0.19,-0.185,-0.17,-0.185,-0.185,-0.215,-0.235
1.0,107.0,0.405,0.405,0.38,0.3,0.205,0.125,0.075,0.05,-0.02,-0.085,-0.13,-0.11,-0.14,-0.215,-0.315,-0.415,-0.48,-0.52,-0.54,-0.57,-0.595,-0.63,-0.665,-0.705,-0.75,-0.78,-0.795,-0.815,-0.855,-0.86,-0.855,-0.84,-0.88,-0.915,-0.955,-0.975,-0.965,-0.945,-0.95,-0.955,-0.98,-0.975,-0.985,-1.0,-0.985,-0.995,-0.985,-0.975,-0.97,-1.01,-1.045,-1.065,-1.055,-1.015,-1.03,-1.04,-1.06,-1.07,-1.08,-1.085,-1.075,-1.05,-1.015,-0.995,-1.005,-1.025,-1.055,-1.09,-1.135,-1.205,-1.27,-1.29,-1.295,-1.305,-1.3,-1.32,-1.325,-1.355,-1.385,-1.385,-1.33,-1.245,-1.125,-1.05,-1.045,-1.085,-1.185,-1.355,-1.515,-1.63,-1.69,-1.755,-1.805,-1.81,-1.715,-1.575,-1.475,-1.46,-1.49,-1.48,-1.41,-1.3,-1.225,-1.275,-1.41,-1.58,-1.735,-1.89,-2.095,-2.305,-2.455,-2.525,-2.535,-2.46,-2.37,-2.26,-2.105,-1.91,-1.69,-1.465,-1.24,-1.05,-0.985,-0.99,-1.0,-0.98,-0.93,-0.89,-0.875,-0.87,-0.855,-0.805,-0.77,-0.75,-0.745,-0.755,-0.745,-0.695,-0.65,-0.595,-0.56,-0.555,-0.515,-0.45,-0.395,-0.38,-0.36,-0.335,-0.285,-0.235,-0.195,-0.18,-0.175,-0.16,-0.15,-0.135,-0.105,-0.075,-0.07,-0.1,-0.09,-0.035,0.025,0.04,0.02,0.01,0.04,0.07,0.095,0.095,0.075,0.04,0.03,0.055,0.06,0.065,0.02,-0.01,-0.045,-0.04,-0.04,-0.03,-0.045,-0.095,-0.15,-0.18,-0.19,-0.185,-0.18,-0.185,-0.215,-0.26,-0.3,-0.345,-0.4,-0.445,-0.49,-0.5,-0.505,-0.53,-0.555,-0.585,-0.61,-0.605,-0.615,-0.635,-0.69,-0.735,-0.765,-0.78,-0.815,-0.85,-0.88,-0.895,-0.9,-0.875,-0.86,-0.84,-0.86,-0.895,-0.92,-0.91,-0.895,-0.86,-0.87,-0.895,-0.92,-0.93,-0.9,-0.885,-0.9,-0.915,-0.945,-0.94,-0.935,-0.91,-0.92,-0.91,-0.93,-0.905,-0.865,-0.825,-0.83,-0.88,-0.91,-0.955,-0.965,-0.955,-0.93,-0.91,-0.91,-0.89,-0.88,-0.86,-0.845,-0.835,-0.85,-0.87,-0.875,-0.85,-0.85,-0.86,-0.85,-0.825,-0.82,-0.82,-0.84,-0.86,-0.865,-0.82,-0.775,-0.8,-0.845,-0.9,-0.925,-0.915,-0.875,-0.83,-0.81,-0.8,-0.82,-0.82,-0.83,-0.805,-0.8,-0.79,-0.775,-0.745,-0.72,-0.755,-0.805,-0.835,-0.86,-0.825,-0.805,-0.805,-0.8,-0.76,-0.735,-0.735
1.0,107.0,0.92,0.88,0.835,0.765,0.715,0.625,0.57,0.52,0.455,0.39,0.32,0.235,0.175,0.12,0.045,-0.03,-0.09,-0.16,-0.225,-0.29,-0.33,-0.36,-0.415,-0.455,-0.5,-0.53,-0.53,-0.54,-0.57,-0.605,-0.63,-0.63,-0.635,-0.64,-0.66,-0.685,-0.685,-0.68,-0.685,-0.72,-0.76,-0.805,-0.8,-0.77,-0.74,-0.735,-0.755,-0.78,-0.785,-0.785,-0.775,-0.79,-0.795,-0.825,-0.825,-0.82,-0.815,-0.82,-0.825,-0.835,-0.815,-0.82,-0.825,-0.835,-0.86,-0.87,-0.9,-0.92,-0.95,-1.01,-1.07,-1.1,-1.12,-1.11,-1.12,-1.145,-1.175,-1.2,-1.18,-1.105,-1.0,-0.895,-0.85,-0.875,-0.945,-1.06,-1.19,-1.33,-1.455,-1.555,-1.625,-1.675,-1.73,-1.72,-1.62,-1.475,-1.325,-1.22,-1.165,-1.105,-1.01,-0.885,-0.8,-0.805,-0.955,-1.155,-1.365,-1.59,-1.85,-2.105,-2.285,-2.385,-2.4,-2.365,-2.25,-2.11,-1.905,-1.67,-1.435,-1.21,-0.94,-0.765,-0.69,-0.68,-0.69,-0.685,-0.66,-0.635,-0.585,-0.535,-0.475,-0.44,-0.405,-0.38,-0.37,-0.365,-0.375,-0.385,-0.38,-0.36,-0.32,-0.29,-0.265,-0.26,-0.25,-0.235,-0.205,-0.18,-0.16,-0.15,-0.13,-0.135,-0.125,-0.115,-0.075,-0.055,-0.045,-0.02,0.0,0.025,0.06,0.085,0.085,0.09,0.075,0.09,0.125,0.14,0.155,0.19,0.23,0.275,0.28,0.24,0.225,0.24,0.26,0.285,0.295,0.305,0.32,0.315,0.315,0.3,0.29,0.275,0.28,0.28,0.28,0.27,0.255,0.205,0.185,0.165,0.15,0.125,0.095,0.055,0.025,0.0,-0.005,-0.045,-0.085,-0.12,-0.14,-0.15,-0.16,-0.175,-0.205,-0.25,-0.255,-0.27,-0.275,-0.32,-0.355,-0.395,-0.415,-0.425,-0.435,-0.43,-0.445,-0.45,-0.45,-0.42,-0.39,-0.375,-0.39,-0.425,-0.435,-0.425,-0.38,-0.355,-0.35,-0.35,-0.325,-0.275,-0.23,-0.21,-0.19,-0.21,-0.215,-0.205,-0.195,-0.195,-0.215,-0.24,-0.27,-0.245,-0.245,-0.235,-0.245,-0.265,-0.265,-0.245,-0.23,-0.225,-0.22,-0.24,-0.28,-0.305,-0.32,-0.335,-0.365,-0.405,-0.435,-0.445,-0.47,-0.505,-0.535,-0.54,-0.53,-0.54,-0.535,-0.555,-0.585,-0.625,-0.65,-0.65,-0.635,-0.625,-0.63,-0.645,-0.63,-0.63,-0.61,-0.615,-0.63,-0.64,-0.655,-0.64,-0.645,-0.64,-0.63,-0.63,-0.615,-0.62,-0.61,-0.645,-0.655,-0.665
1.0,107.0,0.415,0.385,0.35,0.31,0.26,0.22,0.2,0.17,0.12,0.065,0.01,-0.035,-0.08,-0.125,-0.18,-0.25,-0.325,-0.365,-0.38,-0.405,-0.435,-0.48,-0.52,-0.545,-0.565,-0.55,-0.58,-0.6,-0.615,-0.62,-0.62,-0.64,-0.66,-0.675,-0.695,-0.69,-0.68,-0.685,-0.705,-0.725,-0.725,-0.72,-0.715,-0.71,-0.71,-0.73,-0.745,-0.745,-0.745,-0.735,-0.745,-0.775,-0.785,-0.79,-0.78,-0.77,-0.765,-0.785,-0.795,-0.785,-0.785,-0.76,-0.765,-0.79,-0.815,-0.82,-0.84,-0.885,-0.93,-0.965,-1.015,-1.04,-1.045,-1.04,-1.045,-1.06,-1.115,-1.155,-1.175,-1.105,-1.015,-0.9,-0.83,-0.81,-0.87,-0.975,-1.145,-1.325,-1.495,-1.625,-1.715,-1.78,-1.87,-1.88,-1.81,-1.665,-1.555,-1.53,-1.555,-1.545,-1.465,-1.35,-1.24,-1.245,-1.335,-1.495,-1.655,-1.815,-2.015,-2.185,-2.305,-2.365,-2.345,-2.26,-2.13,-1.985,-1.825,-1.625,-1.44,-1.23,-1.01,-0.82,-0.685,-0.61,-0.585,-0.57,-0.52,-0.47,-0.42,-0.37,-0.335,-0.275,-0.215,-0.17,-0.14,-0.1,-0.05,-0.02,-0.02,-0.04,-0.07,-0.085,-0.08,-0.045,0.0,0.02,0.015,0.0,0.0,0.005,0.005,0.03,0.03,0.025,0.01,-0.01,-0.025,-0.055,-0.05,-0.055,-0.07,-0.06,-0.06,-0.07,-0.065,-0.065,-0.055,-0.045,-0.045,-0.04,-0.035,-0.045,-0.025,-0.005,0.01,0.035,0.06,0.065,0.05,0.055,0.065,0.065,0.055,0.045,0.03,0.035,0.05,0.065,0.05,0.035,0.0,-0.02,-0.06,-0.075,-0.095,-0.125,-0.135,-0.13,-0.155,-0.16,-0.195,-0.235,-0.27,-0.28,-0.285,-0.295,-0.315,-0.355,-0.39,-0.42,-0.43,-0.46,-0.48,-0.525,-0.565,-0.56,-0.565,-0.565,-0.565,-0.585,-0.6,-0.625,-0.63,-0.64,-0.665,-0.67,-0.68,-0.685,-0.665,-0.665,-0.665,-0.685,-0.695,-0.685,-0.66,-0.65,-0.655,-0.665,-0.685,-0.69,-0.68,-0.685,-0.7,-0.715,-0.725,-0.725,-0.715,-0.69,-0.695,-0.7,-0.715,-0.705,-0.685,-0.655,-0.645,-0.645,-0.675,-0.685,-0.7,-0.7,-0.68,-0.675,-0.67,-0.665,-0.665,-0.65,-0.625,-0.64,-0.655,-0.645,-0.64,-0.63,-0.635,-0.635,-0.645,-0.64,-0.63,-0.615,-0.625,-0.625,-0.655,-0.635,-0.635,-0.62,-0.61,-0.6,-0.59,-0.605,-0.63,-0.62,-0.625,-0.615,-0.62,-0.615,-0.63,-0.62,-0.63,-0.615,-0.615,-0.585
1.0,107.0,0.675,0.605,0.57,0.53,0.49,0.44,0.4,0.345,0.31,0.25,0.225,0.18,0.135,0.095,0.07,0.04,0.01,-0.02,-0.045,-0.085,-0.1,-0.11,-0.13,-0.15,-0.165,-0.185,-0.19,-0.2,-0.195,-0.215,-0.24,-0.255,-0.255,-0.25,-0.245,-0.25,-0.26,-0.285,-0.27,-0.265,-0.27,-0.275,-0.27,-0.29,-0.29,-0.295,-0.29,-0.3,-0.295,-0.3,-0.295,-0.295,-0.29,-0.285,-0.285,-0.3,-0.29,-0.275,-0.285,-0.295,-0.305,-0.315,-0.32,-0.31,-0.33,-0.365,-0.385,-0.435,-0.47,-0.505,-0.54,-0.58,-0.585,-0.615,-0.615,-0.635,-0.665,-0.655,-0.605,-0.53,-0.455,-0.385,-0.36,-0.38,-0.45,-0.61,-0.79,-1.015,-1.185,-1.32,-1.445,-1.555,-1.645,-1.67,-1.605,-1.5,-1.435,-1.405,-1.425,-1.4,-1.33,-1.22,-1.125,-1.115,-1.18,-1.3,-1.415,-1.51,-1.605,-1.74,-1.855,-1.91,-1.91,-1.84,-1.73,-1.575,-1.35,-1.09,-0.84,-0.6,-0.345,-0.1,0.08,0.15,0.13,0.11,0.1,0.115,0.14,0.18,0.23,0.265,0.295,0.295,0.305,0.315,0.305,0.305,0.29,0.26,0.255,0.26,0.255,0.24,0.225,0.2,0.195,0.185,0.18,0.175,0.17,0.165,0.18,0.195,0.19,0.18,0.185,0.185,0.205,0.225,0.25,0.265,0.275,0.3,0.315,0.335,0.35,0.36,0.37,0.37,0.395,0.405,0.43,0.44,0.455,0.46,0.485,0.5,0.495,0.5,0.49,0.49,0.49,0.485,0.49,0.48,0.48,0.47,0.47,0.45,0.44,0.4,0.4,0.36,0.36,0.335,0.31,0.275,0.245,0.205,0.175,0.155,0.12,0.095,0.05,0.015,-0.015,-0.04,-0.06,-0.095,-0.135,-0.17,-0.2,-0.205,-0.225,-0.25,-0.28,-0.295,-0.305,-0.31,-0.32,-0.33,-0.34,-0.345,-0.34,-0.34,-0.35,-0.355,-0.37,-0.37,-0.36,-0.355,-0.355,-0.365,-0.365,-0.38,-0.365,-0.36,-0.36,-0.355,-0.38,-0.375,-0.36,-0.35,-0.34,-0.34,-0.365,-0.36,-0.365,-0.365,-0.37,-0.36,-0.375,-0.38,-0.375,-0.355,-0.35,-0.355,-0.365,-0.37,-0.36,-0.355,-0.36,-0.355,-0.37,-0.37,-0.36,-0.35,-0.35,-0.35,-0.355,-0.365,-0.36,-0.35,-0.34,-0.35,-0.36,-0.37,-0.36,-0.37,-0.365,-0.35,-0.36,-0.36,-0.37,-0.365,-0.36,-0.355,-0.365,-0.37,-0.365,-0.345,-0.36,-0.355,-0.37,-0.36,-0.35,-0.34,-0.34,-0.34
1.0,107.0,0.065,0.045,0.015,-0.02,-0.07,-0.11,-0.14,-0.17,-0.19,-0.22,-0.24,-0.28,-0.295,-0.3,-0.315,-0.34,-0.375,-0.39,-0.4,-0.405,-0.39,-0.405,-0.415,-0.44,-0.445,-0.435,-0.42,-0.425,-0.43,-0.42,-0.4,-0.38,-0.345,-0.335,-0.32,-0.305,-0.285,-0.235,-0.2,-0.175,-0.16,-0.16,-0.145,-0.13,-0.12,-0.115,-0.125,-0.16,-0.185,-0.2,-0.195,-0.205,-0.23,-0.245,-0.235,-0.235,-0.21,-0.22,-0.225,-0.25,-0.28,-0.3,-0.34,-0.395,-0.455,-0.51,-0.545,-0.6,-0.645,-0.685,-0.72,-0.755,-0.78,-0.8,-0.81,-0.82,-0.795,-0.75,-0.69,-0.635,-0.59,-0.595,-0.65,-0.745,-0.88,-1.03,-1.16,-1.245,-1.34,-1.43,-1.515,-1.49,-1.39,-1.25,-1.125,-1.085,-1.045,-0.975,-0.87,-0.745,-0.63,-0.62,-0.72,-0.88,-1.04,-1.19,-1.365,-1.585,-1.79,-1.94,-2.005,-2.03,-2.035,-2.01,-1.97,-1.87,-1.74,-1.53,-1.32,-1.12,-0.955,-0.795,-0.69,-0.64,-0.62,-0.63,-0.625,-0.605,-0.575,-0.555,-0.515,-0.5,-0.47,-0.445,-0.425,-0.425,-0.42,-0.41,-0.395,-0.38,-0.365,-0.36,-0.345,-0.345,-0.33,-0.31,-0.29,-0.26,-0.275,-0.265,-0.25,-0.235,-0.205,-0.21,-0.2,-0.18,-0.17,-0.14,-0.125,-0.11,-0.095,-0.09,-0.065,-0.045,-0.025,-0.01,0.01,0.035,0.05,0.07,0.105,0.11,0.115,0.115,0.135,0.165,0.19,0.205,0.205,0.2,0.22,0.23,0.255,0.27,0.26,0.265,0.265,0.285,0.285,0.295,0.295,0.29,0.28,0.28,0.285,0.275,0.25,0.235,0.225,0.225,0.215,0.195,0.16,0.14,0.12,0.105,0.085,0.055,0.035,-0.005,-0.04,-0.065,-0.085,-0.1,-0.14,-0.16,-0.19,-0.2,-0.215,-0.25,-0.285,-0.305,-0.32,-0.315,-0.32,-0.34,-0.35,-0.375,-0.38,-0.385,-0.38,-0.39,-0.39,-0.41,-0.415,-0.41,-0.395,-0.41,-0.42,-0.43,-0.415,-0.415,-0.41,-0.415,-0.43,-0.43,-0.425,-0.43,-0.425,-0.425,-0.425,-0.435,-0.425,-0.43,-0.41,-0.41,-0.42,-0.425,-0.415,-0.4,-0.4,-0.405,-0.415,-0.415,-0.415,-0.41,-0.4,-0.4,-0.41,-0.405,-0.395,-0.39,-0.39,-0.39,-0.38,-0.4,-0.405,-0.4,-0.385,-0.385,-0.385,-0.395,-0.395,-0.39,-0.39,-0.385,-0.395,-0.39,-0.385,-0.375,-0.355,-0.345,-0.35,-0.33,-0.305,-0.28,-0.26,-0.24,-0.22,-0.2
1.0,107.0,0.6,0.625,0.63,0.635,0.635,0.645,0.665,0.695,0.695,0.7,0.69,0.68,0.695,0.71,0.705,0.685,0.67,0.675,0.68,0.68,0.65,0.645,0.625,0.605,0.59,0.555,0.54,0.505,0.47,0.435,0.41,0.4,0.36,0.305,0.24,0.2,0.175,0.14,0.095,0.05,0.0,-0.035,-0.05,-0.09,-0.115,-0.16,-0.195,-0.23,-0.265,-0.275,-0.295,-0.32,-0.345,-0.355,-0.37,-0.385,-0.415,-0.42,-0.44,-0.445,-0.465,-0.465,-0.49,-0.525,-0.57,-0.59,-0.62,-0.655,-0.7,-0.755,-0.795,-0.825,-0.84,-0.84,-0.89,-0.9,-0.94,-0.915,-0.87,-0.825,-0.77,-0.725,-0.72,-0.74,-0.845,-1.0,-1.22,-1.39,-1.5,-1.55,-1.605,-1.64,-1.685,-1.65,-1.55,-1.385,-1.2,-1.07,-1.01,-0.985,-0.985,-0.945,-0.89,-0.84,-0.895,-1.05,-1.285,-1.555,-1.795,-1.975,-2.055,-2.1,-2.095,-2.035,-1.95,-1.815,-1.655,-1.49,-1.34,-1.145,-0.94,-0.735,-0.565,-0.5,-0.495,-0.5,-0.485,-0.465,-0.425,-0.4,-0.38,-0.345,-0.315,-0.275,-0.255,-0.25,-0.245,-0.245,-0.22,-0.21,-0.205,-0.21,-0.19,-0.17,-0.165,-0.155,-0.15,-0.14,-0.14,-0.12,-0.095,-0.075,-0.06,-0.055,-0.055,-0.045,-0.035,-0.005,-0.01,0.0,0.015,0.02,0.045,0.06,0.065,0.065,0.065,0.09,0.1,0.13,0.135,0.155,0.15,0.165,0.17,0.185,0.195,0.205,0.205,0.205,0.24,0.245,0.26,0.26,0.25,0.265,0.275,0.305,0.325,0.33,0.335,0.355,0.36,0.39,0.4,0.425,0.435,0.465,0.49,0.485,0.485,0.47,0.46,0.46,0.47,0.485,0.475,0.435,0.395,0.34,0.3,0.28,0.24,0.205,0.18,0.16,0.15,0.14,0.1,0.06,0.005,-0.01,-0.045,-0.085,-0.135,-0.165,-0.215,-0.245,-0.265,-0.285,-0.32,-0.36,-0.395,-0.42,-0.44,-0.44,-0.46,-0.48,-0.505,-0.545,-0.54,-0.56,-0.575,-0.59,-0.595,-0.6,-0.59,-0.57,-0.57,-0.59,-0.605,-0.615,-0.615,-0.615,-0.61,-0.6,-0.615,-0.605,-0.605,-0.585,-0.59,-0.6,-0.605,-0.6,-0.585,-0.59,-0.595,-0.61,-0.615,-0.61,-0.61,-0.59,-0.6,-0.6,-0.615,-0.615,-0.61,-0.6,-0.605,-0.605,-0.605,-0.6,-0.59,-0.585,-0.6,-0.61,-0.61,-0.605,-0.595,-0.58,-0.585,-0.595,-0.6,-0.605,-0.595,-0.585,-0.59,-0.59,-0.6,-0.59
1.0,107.0,0.74,0.69,0.645,0.595,0.565,0.53,0.49,0.435,0.39,0.33,0.29,0.25,0.21,0.155,0.115,0.045,0.015,-0.025,-0.07,-0.1,-0.165,-0.21,-0.245,-0.275,-0.295,-0.32,-0.36,-0.39,-0.395,-0.405,-0.41,-0.425,-0.465,-0.475,-0.485,-0.49,-0.495,-0.515,-0.525,-0.535,-0.54,-0.525,-0.545,-0.555,-0.565,-0.575,-0.57,-0.565,-0.56,-0.565,-0.575,-0.59,-0.575,-0.575,-0.58,-0.575,-0.595,-0.61,-0.61,-0.595,-0.6,-0.61,-0.63,-0.655,-0.665,-0.675,-0.695,-0.74,-0.78,-0.82,-0.86,-0.875,-0.875,-0.895,-0.92,-0.95,-0.97,-0.96,-0.935,-0.9,-0.86,-0.815,-0.8,-0.82,-0.885,-1.015,-1.2,-1.395,-1.58,-1.685,-1.745,-1.805,-1.875,-1.905,-1.825,-1.64,-1.435,-1.26,-1.175,-1.135,-1.115,-1.115,-1.125,-1.13,-1.175,-1.27,-1.44,-1.655,-1.89,-2.09,-2.21,-2.255,-2.245,-2.21,-2.135,-2.04,-1.885,-1.675,-1.44,-1.215,-0.99,-0.78,-0.63,-0.545,-0.52,-0.515,-0.51,-0.49,-0.46,-0.435,-0.405,-0.365,-0.335,-0.3,-0.295,-0.265,-0.25,-0.235,-0.22,-0.205,-0.205,-0.19,-0.175,-0.15,-0.13,-0.125,-0.12,-0.12,-0.09,-0.065,-0.04,-0.035,-0.035,-0.015,0.005,0.03,0.045,0.07,0.07,0.085,0.115,0.135,0.16,0.175,0.19,0.185,0.22,0.245,0.27,0.285,0.305,0.3,0.33,0.355,0.37,0.385,0.405,0.395,0.405,0.425,0.435,0.44,0.435,0.43,0.445,0.445,0.43,0.43,0.415,0.39,0.375,0.36,0.345,0.31,0.285,0.255,0.23,0.23,0.205,0.19,0.165,0.15,0.135,0.135,0.13,0.135,0.12,0.11,0.105,0.09,0.095,0.09,0.07,0.075,0.07,0.05,0.01,-0.035,-0.08,-0.09,-0.095,-0.095,-0.095,-0.105,-0.13,-0.14,-0.16,-0.175,-0.22,-0.25,-0.265,-0.285,-0.315,-0.325,-0.35,-0.39,-0.42,-0.45,-0.465,-0.48,-0.495,-0.51,-0.52,-0.53,-0.535,-0.55,-0.565,-0.585,-0.585,-0.59,-0.59,-0.58,-0.575,-0.575,-0.585,-0.595,-0.6,-0.585,-0.58,-0.58,-0.59,-0.6,-0.59,-0.585,-0.595,-0.59,-0.59,-0.61,-0.59,-0.575,-0.585,-0.575,-0.585,-0.6,-0.58,-0.57,-0.575,-0.58,-0.585,-0.605,-0.59,-0.58,-0.57,-0.59,-0.6,-0.6,-0.585,-0.56,-0.57,-0.57,-0.57,-0.575,-0.575,-0.575,-0.575,-0.575,-0.575,-0.57,-0.56,-0.55
1.0,107.0,1.055,1.005,0.96,0.925,0.895,0.845,0.81,0.76,0.705,0.655,0.615,0.57,0.505,0.475,0.425,0.365,0.335,0.275,0.21,0.165,0.11,0.075,0.025,-0.02,-0.065,-0.115,-0.17,-0.195,-0.225,-0.265,-0.28,-0.325,-0.34,-0.36,-0.355,-0.37,-0.395,-0.435,-0.455,-0.46,-0.45,-0.45,-0.455,-0.485,-0.515,-0.51,-0.505,-0.515,-0.51,-0.525,-0.54,-0.54,-0.525,-0.525,-0.525,-0.545,-0.575,-0.565,-0.545,-0.565,-0.57,-0.595,-0.615,-0.63,-0.635,-0.665,-0.7,-0.735,-0.775,-0.815,-0.85,-0.875,-0.895,-0.925,-0.975,-1.005,-1.005,-0.975,-0.945,-0.895,-0.85,-0.845,-0.91,-1.025,-1.2,-1.41,-1.65,-1.825,-1.945,-2.015,-2.1,-2.185,-2.235,-2.2,-2.1,-1.955,-1.83,-1.78,-1.75,-1.725,-1.73,-1.71,-1.68,-1.68,-1.7,-1.765,-1.89,-2.04,-2.185,-2.3,-2.345,-2.335,-2.31,-2.275,-2.225,-2.135,-1.975,-1.73,-1.465,-1.21,-0.945,-0.725,-0.545,-0.455,-0.405,-0.405,-0.39,-0.36,-0.345,-0.29,-0.24,-0.2,-0.165,-0.135,-0.115,-0.105,-0.075,-0.065,-0.06,-0.055,-0.04,-0.015,0.01,0.025,0.045,0.04,0.045,0.05,0.075,0.085,0.105,0.11,0.12,0.14,0.165,0.18,0.18,0.205,0.22,0.235,0.265,0.305,0.325,0.33,0.35,0.37,0.4,0.425,0.42,0.445,0.47,0.495,0.515,0.54,0.54,0.555,0.55,0.575,0.57,0.575,0.58,0.585,0.585,0.595,0.595,0.59,0.575,0.565,0.555,0.545,0.535,0.495,0.47,0.445,0.415,0.405,0.39,0.35,0.33,0.29,0.26,0.225,0.195,0.17,0.135,0.09,0.075,0.065,0.07,0.06,0.04,0.04,0.04,0.055,0.075,0.09,0.085,0.085,0.085,0.09,0.1,0.095,0.1,0.08,0.05,0.02,0.005,-0.015,-0.055,-0.055,-0.065,-0.05,-0.03,-0.05,-0.075,-0.12,-0.135,-0.15,-0.16,-0.185,-0.22,-0.25,-0.27,-0.3,-0.32,-0.35,-0.38,-0.405,-0.43,-0.435,-0.43,-0.44,-0.46,-0.485,-0.5,-0.515,-0.515,-0.515,-0.515,-0.52,-0.53,-0.525,-0.52,-0.52,-0.525,-0.545,-0.55,-0.545,-0.54,-0.53,-0.535,-0.53,-0.55,-0.545,-0.54,-0.54,-0.545,-0.55,-0.54,-0.535,-0.525,-0.535,-0.53,-0.535,-0.55,-0.535,-0.53,-0.535,-0.535,-0.545,-0.555,-0.545,-0.525,-0.525,-0.53,-0.545,-0.545,-0.535,-0.53,-0.54
1.0,107.0,0.725,0.685,0.655,0.635,0.615,0.58,0.525,0.465,0.425,0.38,0.325,0.265,0.215,0.145,0.095,0.05,0.01,-0.045,-0.1,-0.16,-0.205,-0.235,-0.275,-0.31,-0.34,-0.39,-0.42,-0.45,-0.45,-0.485,-0.5,-0.53,-0.54,-0.535,-0.545,-0.56,-0.575,-0.595,-0.595,-0.59,-0.585,-0.62,-0.63,-0.63,-0.63,-0.62,-0.605,-0.615,-0.62,-0.63,-0.64,-0.635,-0.63,-0.63,-0.635,-0.645,-0.635,-0.635,-0.63,-0.645,-0.66,-0.655,-0.65,-0.645,-0.65,-0.65,-0.655,-0.7,-0.725,-0.75,-0.775,-0.815,-0.86,-0.91,-0.925,-0.955,-0.95,-0.985,-1.01,-1.03,-1.0,-0.94,-0.88,-0.82,-0.83,-0.885,-1.03,-1.245,-1.505,-1.735,-1.89,-1.995,-2.095,-2.17,-2.19,-2.14,-2.035,-1.93,-1.855,-1.845,-1.84,-1.845,-1.845,-1.82,-1.795,-1.77,-1.825,-1.98,-2.135,-2.28,-2.355,-2.38,-2.335,-2.29,-2.225,-2.12,-1.945,-1.735,-1.49,-1.27,-1.04,-0.835,-0.665,-0.55,-0.505,-0.495,-0.485,-0.46,-0.415,-0.385,-0.325,-0.275,-0.23,-0.215,-0.2,-0.175,-0.155,-0.135,-0.135,-0.13,-0.115,-0.11,-0.1,-0.085,-0.08,-0.07,-0.035,-0.01,0.01,0.035,0.05,0.06,0.09,0.115,0.14,0.17,0.185,0.205,0.25,0.285,0.33,0.355,0.38,0.425,0.475,0.525,0.57,0.615,0.665,0.705,0.77,0.83,0.865,0.915,0.915,0.92,0.94,0.985,1.025,1.05,1.05,1.02,0.99,0.99,1.005,0.98,0.975,0.925,0.915,0.91,0.87,0.83,0.775,0.72,0.665,0.63,0.57,0.495,0.425,0.36,0.295,0.22,0.15,0.08,0.005,-0.065,-0.13,-0.185,-0.205,-0.26,-0.325,-0.375,-0.42,-0.45,-0.455,-0.5,-0.52,-0.545,-0.555,-0.565,-0.56,-0.575,-0.59,-0.59,-0.6,-0.59,-0.6,-0.605,-0.62,-0.63,-0.615,-0.61,-0.61,-0.605,-0.61,-0.62,-0.63,-0.63,-0.63,-0.62,-0.64,-0.64,-0.625,-0.61,-0.6,-0.605,-0.63,-0.625,-0.62,-0.595,-0.6,-0.59,-0.59,-0.595,-0.61,-0.61,-0.595,-0.59,-0.595,-0.6,-0.6,-0.605,-0.61,-0.6,-0.61,-0.61,-0.61,-0.595,-0.58,-0.58,-0.59,-0.6,-0.615,-0.61,-0.59,-0.59,-0.605,-0.62,-0.605,-0.605,-0.6,-0.585,-0.585,-0.595,-0.595,-0.575,-0.58,-0.565,-0.585,-0.595,-0.605,-0.59,-0.59,-0.575,-0.59,-0.595,-0.6,-0.59,-0.58,-0.58
1.0,107.0,0.48,0.425,0.385,0.34,0.32,0.29,0.27,0.21,0.17,0.145,0.115,0.09,0.055,0.025,-0.01,-0.02,-0.02,-0.035,-0.055,-0.075,-0.095,-0.105,-0.11,-0.12,-0.13,-0.155,-0.165,-0.165,-0.16,-0.16,-0.16,-0.175,-0.18,-0.19,-0.185,-0.17,-0.175,-0.185,-0.2,-0.2,-0.195,-0.195,-0.19,-0.195,-0.22,-0.195,-0.19,-0.19,-0.19,-0.195,-0.225,-0.22,-0.205,-0.19,-0.195,-0.195,-0.2,-0.21,-0.205,-0.195,-0.205,-0.23,-0.26,-0.26,-0.29,-0.305,-0.34,-0.375,-0.43,-0.465,-0.47,-0.47,-0.485,-0.525,-0.555,-0.555,-0.535,-0.49,-0.445,-0.425,-0.395,-0.36,-0.37,-0.44,-0.6,-0.84,-1.095,-1.28,-1.4,-1.475,-1.575,-1.65,-1.66,-1.6,-1.455,-1.31,-1.225,-1.21,-1.23,-1.25,-1.24,-1.225,-1.205,-1.205,-1.23,-1.315,-1.43,-1.565,-1.705,-1.835,-1.87,-1.83,-1.785,-1.705,-1.61,-1.505,-1.335,-1.105,-0.855,-0.6,-0.365,-0.16,0.01,0.145,0.215,0.23,0.23,0.245,0.255,0.3,0.36,0.405,0.425,0.45,0.455,0.46,0.455,0.45,0.45,0.425,0.4,0.415,0.405,0.4,0.37,0.355,0.335,0.33,0.34,0.34,0.35,0.355,0.35,0.36,0.37,0.365,0.385,0.385,0.39,0.41,0.44,0.47,0.48,0.505,0.51,0.525,0.56,0.575,0.6,0.62,0.63,0.66,0.695,0.72,0.735,0.745,0.755,0.785,0.815,0.83,0.84,0.85,0.84,0.86,0.88,0.895,0.895,0.895,0.88,0.87,0.85,0.825,0.815,0.805,0.79,0.775,0.76,0.745,0.71,0.665,0.62,0.585,0.55,0.53,0.475,0.43,0.38,0.355,0.33,0.285,0.23,0.175,0.13,0.115,0.085,0.085,0.065,0.03,-0.005,-0.045,-0.08,-0.105,-0.12,-0.115,-0.13,-0.145,-0.145,-0.14,-0.15,-0.17,-0.175,-0.165,-0.155,-0.145,-0.14,-0.15,-0.155,-0.16,-0.155,-0.15,-0.155,-0.16,-0.165,-0.17,-0.155,-0.14,-0.14,-0.145,-0.155,-0.155,-0.155,-0.15,-0.15,-0.16,-0.17,-0.17,-0.15,-0.145,-0.135,-0.145,-0.155,-0.145,-0.145,-0.135,-0.135,-0.15,-0.17,-0.155,-0.155,-0.14,-0.16,-0.19,-0.195,-0.18,-0.165,-0.14,-0.16,-0.17,-0.165,-0.165,-0.17,-0.165,-0.16,-0.155,-0.165,-0.17,-0.165,-0.155,-0.15,-0.16,-0.16,-0.155,-0.135,-0.135,-0.145,-0.18,-0.205,-0.2,-0.195,-0.18
1.0,107.0,0.845,0.825,0.815,0.795,0.765,0.75,0.72,0.695,0.66,0.61,0.535,0.505,0.475,0.445,0.405,0.35,0.295,0.25,0.21,0.18,0.12,0.06,0.005,-0.055,-0.09,-0.125,-0.165,-0.21,-0.26,-0.295,-0.33,-0.355,-0.385,-0.42,-0.455,-0.475,-0.485,-0.5,-0.505,-0.53,-0.555,-0.545,-0.55,-0.555,-0.56,-0.575,-0.595,-0.585,-0.575,-0.57,-0.58,-0.6,-0.605,-0.615,-0.62,-0.61,-0.605,-0.615,-0.63,-0.64,-0.65,-0.655,-0.655,-0.67,-0.665,-0.665,-0.68,-0.7,-0.745,-0.79,-0.835,-0.865,-0.9,-0.925,-0.945,-0.95,-0.975,-0.995,-1.0,-0.995,-0.97,-0.93,-0.89,-0.86,-0.88,-0.955,-1.135,-1.4,-1.685,-1.89,-2.02,-2.105,-2.2,-2.29,-2.335,-2.27,-2.17,-2.05,-1.98,-1.98,-1.98,-1.97,-1.92,-1.865,-1.815,-1.85,-1.96,-2.12,-2.28,-2.4,-2.465,-2.46,-2.44,-2.365,-2.26,-2.085,-1.885,-1.66,-1.445,-1.195,-0.93,-0.7,-0.535,-0.475,-0.475,-0.465,-0.425,-0.405,-0.36,-0.335,-0.295,-0.235,-0.195,-0.17,-0.145,-0.145,-0.135,-0.105,-0.095,-0.07,-0.045,-0.045,-0.035,-0.015,0.0,0.03,0.045,0.05,0.055,0.07,0.105,0.115,0.13,0.145,0.165,0.19,0.23,0.28,0.31,0.34,0.38,0.425,0.475,0.54,0.595,0.625,0.675,0.73,0.77,0.83,0.86,0.895,0.915,0.955,0.985,0.995,0.99,0.975,0.95,0.955,0.955,0.975,0.965,0.96,0.93,0.92,0.895,0.875,0.83,0.775,0.725,0.68,0.65,0.61,0.57,0.505,0.425,0.36,0.325,0.275,0.215,0.16,0.1,0.065,0.02,-0.04,-0.09,-0.15,-0.205,-0.25,-0.255,-0.295,-0.33,-0.355,-0.405,-0.42,-0.44,-0.445,-0.45,-0.47,-0.485,-0.51,-0.495,-0.51,-0.505,-0.515,-0.535,-0.535,-0.54,-0.52,-0.535,-0.535,-0.535,-0.52,-0.52,-0.53,-0.535,-0.535,-0.54,-0.53,-0.515,-0.515,-0.525,-0.53,-0.53,-0.52,-0.495,-0.505,-0.505,-0.525,-0.535,-0.53,-0.515,-0.505,-0.525,-0.54,-0.555,-0.55,-0.525,-0.53,-0.53,-0.53,-0.525,-0.525,-0.52,-0.52,-0.53,-0.525,-0.535,-0.53,-0.53,-0.515,-0.515,-0.525,-0.54,-0.55,-0.535,-0.52,-0.515,-0.53,-0.55,-0.545,-0.535,-0.525,-0.515,-0.53,-0.53,-0.54,-0.525,-0.51,-0.52,-0.51,-0.525,-0.52,-0.52,-0.505,-0.505,-0.5,-0.52,-0.53
1.0,107.0,1.095,1.025,0.95,0.85,0.775,0.7,0.64,0.575,0.5,0.43,0.375,0.335,0.275,0.195,0.13,0.085,0.045,0.02,0.0,-0.035,-0.06,-0.095,-0.11,-0.13,-0.14,-0.165,-0.185,-0.205,-0.225,-0.23,-0.22,-0.235,-0.26,-0.275,-0.28,-0.285,-0.27,-0.285,-0.28,-0.295,-0.305,-0.305,-0.29,-0.3,-0.315,-0.325,-0.3,-0.295,-0.3,-0.31,-0.31,-0.33,-0.345,-0.35,-0.335,-0.33,-0.31,-0.305,-0.305,-0.26,-0.205,-0.165,-0.11,-0.055,0.005,0.09,0.185,0.265,0.365,0.48,0.61,0.765,0.905,1.025,1.11,1.205,1.32,1.45,1.6,1.74,1.86,1.975,2.08,2.175,2.26,2.305,2.335,2.365,2.365,2.35,2.29,2.24,2.205,2.16,2.015,1.815,1.65,1.59,1.565,1.52,1.43,1.325,1.215,1.03,0.76,0.405,0.045,-0.265,-0.505,-0.725,-0.965,-1.205,-1.405,-1.525,-1.555,-1.545,-1.505,-1.45,-1.38,-1.295,-1.235,-1.18,-1.165,-1.17,-1.19,-1.19,-1.195,-1.21,-1.22,-1.245,-1.25,-1.265,-1.265,-1.295,-1.3,-1.325,-1.34,-1.36,-1.36,-1.39,-1.405,-1.435,-1.45,-1.46,-1.47,-1.49,-1.515,-1.535,-1.56,-1.565,-1.575,-1.6,-1.615,-1.64,-1.655,-1.67,-1.67,-1.68,-1.685,-1.695,-1.72,-1.71,-1.7,-1.71,-1.72,-1.705,-1.7,-1.685,-1.665,-1.66,-1.65,-1.64,-1.63,-1.57,-1.525,-1.485,-1.465,-1.45,-1.43,-1.375,-1.33,-1.29,-1.255,-1.225,-1.17,-1.135,-1.07,-1.045,-1.02,-0.985,-0.96,-0.915,-0.865,-0.84,-0.815,-0.795,-0.77,-0.735,-0.705,-0.68,-0.65,-0.65,-0.615,-0.585,-0.57,-0.55,-0.545,-0.525,-0.495,-0.45,-0.425,-0.4,-0.375,-0.37,-0.34,-0.3,-0.25,-0.2,-0.145,-0.115,-0.07,-0.055,-0.015,0.0,0.015,0.03,0.07,0.1,0.105,0.065,0.03,0.005,-0.025,-0.015,-0.005,-0.015,-0.025,-0.04,-0.05,-0.065,-0.08,-0.105,-0.13,-0.15,-0.185,-0.195,-0.21,-0.24,-0.275,-0.315,-0.335,-0.345,-0.36,-0.365,-0.385,-0.395,-0.41,-0.42,-0.415,-0.435,-0.445,-0.44,-0.425,-0.425,-0.4,-0.41,-0.435,-0.425,-0.425,-0.425,-0.41,-0.41,-0.42,-0.42,-0.42,-0.42,-0.4,-0.405,-0.405,-0.415,-0.425,-0.405,-0.4,-0.4,-0.4,-0.415,-0.415,-0.4,-0.395,-0.385,-0.4,-0.405,-0.4,-0.395,-0.385,-0.385,-0.4,-0.41,-0.4,-0.39
1.0,107.0,0.865,0.825,0.78,0.73,0.665,0.605,0.545,0.49,0.46,0.405,0.35,0.3,0.235,0.185,0.155,0.125,0.08,0.025,-0.025,-0.05,-0.065,-0.08,-0.125,-0.15,-0.2,-0.225,-0.225,-0.235,-0.245,-0.27,-0.29,-0.295,-0.29,-0.295,-0.29,-0.295,-0.32,-0.32,-0.32,-0.315,-0.315,-0.33,-0.345,-0.34,-0.335,-0.33,-0.325,-0.33,-0.34,-0.335,-0.34,-0.315,-0.3,-0.29,-0.31,-0.305,-0.31,-0.295,-0.3,-0.295,-0.3,-0.29,-0.265,-0.245,-0.23,-0.19,-0.13,-0.04,0.065,0.165,0.26,0.365,0.46,0.595,0.74,0.89,1.06,1.235,1.365,1.485,1.57,1.645,1.74,1.855,1.95,1.995,2.03,2.005,1.92,1.745,1.56,1.39,1.205,1.065,0.975,0.9,0.86,0.88,0.885,0.87,0.77,0.645,0.435,0.16,-0.125,-0.4,-0.665,-0.925,-1.11,-1.22,-1.23,-1.23,-1.26,-1.355,-1.48,-1.56,-1.555,-1.47,-1.375,-1.285,-1.24,-1.185,-1.12,-1.03,-0.97,-0.92,-0.94,-0.985,-1.02,-1.035,-1.055,-1.085,-1.1,-1.12,-1.155,-1.165,-1.185,-1.215,-1.245,-1.26,-1.285,-1.3,-1.335,-1.345,-1.365,-1.37,-1.375,-1.385,-1.405,-1.425,-1.46,-1.47,-1.48,-1.48,-1.495,-1.49,-1.525,-1.525,-1.525,-1.515,-1.52,-1.525,-1.525,-1.52,-1.485,-1.475,-1.445,-1.425,-1.405,-1.375,-1.345,-1.305,-1.275,-1.235,-1.21,-1.165,-1.11,-1.06,-1.015,-0.985,-0.955,-0.92,-0.855,-0.83,-0.775,-0.745,-0.715,-0.69,-0.645,-0.61,-0.58,-0.56,-0.555,-0.54,-0.52,-0.51,-0.495,-0.5,-0.51,-0.505,-0.49,-0.47,-0.46,-0.475,-0.485,-0.49,-0.485,-0.475,-0.48,-0.475,-0.49,-0.465,-0.475,-0.455,-0.465,-0.475,-0.5,-0.495,-0.465,-0.465,-0.465,-0.475,-0.475,-0.48,-0.48,-0.46,-0.47,-0.48,-0.485,-0.495,-0.475,-0.47,-0.47,-0.485,-0.48,-0.475,-0.475,-0.475,-0.47,-0.48,-0.485,-0.465,-0.47,-0.445,-0.445,-0.455,-0.475,-0.465,-0.45,-0.43,-0.43,-0.435,-0.45,-0.42,-0.425,-0.405,-0.4,-0.4,-0.41,-0.405,-0.39,-0.385,-0.375,-0.38,-0.38,-0.37,-0.35,-0.345,-0.34,-0.36,-0.355,-0.345,-0.335,-0.335,-0.335,-0.34,-0.345,-0.345,-0.33,-0.32,-0.32,-0.33,-0.325,-0.32,-0.31,-0.305,-0.315,-0.315,-0.31,-0.3,-0.295,-0.285,-0.29,-0.295,-0.295,-0.295,-0.29,-0.28,-0.27,-0.275
1.0,107.0,-0.27,-0.28,-0.295,-0.335,-0.38,-0.425,-0.47,-0.49,-0.535,-0.56,-0.58,-0.595,-0.6,-0.585,-0.595,-0.585,-0.575,-0.62,-0.69,-0.75,-0.77,-0.74,-0.705,-0.705,-0.705,-0.705,-0.715,-0.72,-0.715,-0.725,-0.715,-0.715,-0.73,-0.74,-0.755,-0.755,-0.765,-0.78,-0.77,-0.76,-0.73,-0.73,-0.73,-0.735,-0.715,-0.695,-0.68,-0.685,-0.71,-0.735,-0.75,-0.765,-0.79,-0.805,-0.81,-0.775,-0.735,-0.705,-0.675,-0.645,-0.63,-0.61,-0.56,-0.5,-0.415,-0.345,-0.285,-0.215,-0.14,-0.03,0.09,0.19,0.295,0.45,0.575,0.715,0.84,0.955,1.085,1.2,1.32,1.46,1.595,1.705,1.795,1.87,1.91,1.91,1.885,1.86,1.835,1.785,1.72,1.64,1.545,1.335,1.135,1.035,1.025,1.005,0.915,0.795,0.61,0.31,-0.085,-0.495,-0.83,-1.06,-1.24,-1.445,-1.64,-1.805,-1.97,-2.11,-2.205,-2.25,-2.195,-2.11,-2.04,-1.965,-1.91,-1.785,-1.68,-1.605,-1.58,-1.59,-1.6,-1.605,-1.605,-1.585,-1.58,-1.595,-1.615,-1.62,-1.645,-1.66,-1.69,-1.715,-1.735,-1.725,-1.725,-1.725,-1.75,-1.785,-1.81,-1.825,-1.81,-1.8,-1.815,-1.845,-1.87,-1.86,-1.86,-1.87,-1.915,-1.965,-1.975,-1.96,-1.95,-1.965,-1.985,-1.965,-1.955,-1.955,-1.965,-1.97,-1.99,-1.995,-1.99,-1.96,-1.945,-1.92,-1.92,-1.875,-1.825,-1.76,-1.745,-1.74,-1.75,-1.745,-1.71,-1.625,-1.555,-1.505,-1.465,-1.44,-1.425,-1.385,-1.34,-1.29,-1.26,-1.22,-1.19,-1.16,-1.125,-1.085,-1.05,-1.02,-1.005,-1.005,-1.015,-1.03,-1.015,-0.99,-0.97,-0.935,-0.89,-0.855,-0.825,-0.795,-0.77,-0.75,-0.76,-0.81,-0.875,-0.905,-0.895,-0.85,-0.825,-0.84,-0.85,-0.88,-0.9,-0.875,-0.85,-0.805,-0.775,-0.75,-0.76,-0.735,-0.725,-0.72,-0.745,-0.785,-0.815,-0.8,-0.79,-0.785,-0.805,-0.81,-0.815,-0.785,-0.72,-0.68,-0.695,-0.735,-0.785,-0.83,-0.83,-0.82,-0.83,-0.86,-0.885,-0.885,-0.875,-0.85,-0.81,-0.755,-0.73,-0.73,-0.755,-0.785,-0.78,-0.765,-0.765,-0.775,-0.81,-0.81,-0.835,-0.835,-0.835,-0.8,-0.755,-0.745,-0.73,-0.745,-0.74,-0.745,-0.76,-0.76,-0.74,-0.695,-0.685,-0.675,-0.685,-0.705,-0.71,-0.7,-0.68,-0.675,-0.68,-0.67,-0.685,-0.695,-0.705,-0.685,-0.665,-0.68,-0.695,-0.715
1.0,107.0,1.185,1.17,1.17,1.18,1.15,1.135,1.115,1.075,1.08,1.045,1.0,0.975,0.925,0.895,0.87,0.81,0.79,0.715,0.67,0.605,0.565,0.52,0.45,0.395,0.325,0.265,0.215,0.165,0.12,0.055,0.01,-0.05,-0.085,-0.12,-0.16,-0.2,-0.24,-0.27,-0.31,-0.315,-0.34,-0.375,-0.405,-0.425,-0.44,-0.44,-0.46,-0.475,-0.495,-0.51,-0.505,-0.505,-0.515,-0.525,-0.55,-0.56,-0.55,-0.555,-0.555,-0.555,-0.58,-0.58,-0.57,-0.575,-0.595,-0.625,-0.655,-0.705,-0.73,-0.76,-0.825,-0.86,-0.9,-0.91,-0.925,-0.935,-0.965,-0.99,-0.98,-0.95,-0.875,-0.815,-0.785,-0.8,-0.885,-1.04,-1.245,-1.5,-1.755,-1.955,-2.09,-2.2,-2.28,-2.35,-2.36,-2.315,-2.2,-2.135,-2.1,-2.08,-2.06,-2.035,-1.99,-1.91,-1.84,-1.85,-1.945,-2.08,-2.22,-2.33,-2.365,-2.37,-2.315,-2.235,-2.12,-1.94,-1.685,-1.45,-1.22,-0.985,-0.745,-0.545,-0.445,-0.39,-0.39,-0.355,-0.335,-0.295,-0.25,-0.19,-0.16,-0.135,-0.095,-0.075,-0.055,-0.02,-0.005,0.005,0.02,0.01,0.06,0.085,0.105,0.11,0.115,0.14,0.165,0.195,0.2,0.22,0.24,0.255,0.28,0.31,0.315,0.33,0.345,0.38,0.41,0.455,0.475,0.49,0.505,0.52,0.545,0.58,0.605,0.615,0.64,0.65,0.675,0.705,0.715,0.72,0.73,0.74,0.77,0.79,0.8,0.785,0.775,0.765,0.785,0.775,0.77,0.755,0.73,0.72,0.695,0.69,0.67,0.635,0.59,0.565,0.545,0.53,0.505,0.475,0.43,0.41,0.395,0.385,0.37,0.355,0.345,0.35,0.365,0.38,0.37,0.35,0.325,0.315,0.305,0.31,0.295,0.295,0.245,0.195,0.145,0.115,0.085,0.05,0.06,0.03,0.05,0.04,0.02,-0.01,-0.03,-0.06,-0.08,-0.08,-0.12,-0.155,-0.185,-0.22,-0.235,-0.26,-0.295,-0.33,-0.36,-0.4,-0.4,-0.41,-0.425,-0.435,-0.45,-0.46,-0.47,-0.465,-0.48,-0.505,-0.515,-0.505,-0.495,-0.485,-0.49,-0.495,-0.515,-0.52,-0.515,-0.5,-0.495,-0.505,-0.51,-0.505,-0.515,-0.51,-0.515,-0.525,-0.535,-0.525,-0.53,-0.51,-0.51,-0.525,-0.53,-0.53,-0.525,-0.505,-0.52,-0.535,-0.53,-0.53,-0.525,-0.52,-0.52,-0.525,-0.52,-0.53,-0.51,-0.5,-0.51,-0.51,-0.515,-0.53,-0.525,-0.52,-0.52,-0.535
1.0,107.0,1.52,1.53,1.525,1.5,1.475,1.475,1.465,1.48,1.49,1.48,1.445,1.415,1.39,1.37,1.335,1.29,1.235,1.165,1.115,1.06,1.01,0.945,0.885,0.815,0.75,0.685,0.63,0.57,0.5,0.43,0.345,0.295,0.23,0.165,0.1,0.04,-0.025,-0.05,-0.08,-0.115,-0.18,-0.235,-0.275,-0.305,-0.325,-0.345,-0.38,-0.425,-0.445,-0.465,-0.465,-0.49,-0.5,-0.535,-0.54,-0.55,-0.56,-0.555,-0.57,-0.585,-0.59,-0.605,-0.6,-0.59,-0.605,-0.62,-0.62,-0.62,-0.605,-0.62,-0.625,-0.64,-0.63,-0.63,-0.615,-0.61,-0.64,-0.645,-0.65,-0.645,-0.63,-0.625,-0.625,-0.64,-0.65,-0.64,-0.635,-0.64,-0.635,-0.64,-0.635,-0.62,-0.61,-0.61,-0.605,-0.62,-0.635,-0.65,-0.665,-0.705,-0.745,-0.79,-0.835,-0.865,-0.875,-0.885,-0.91,-0.935,-0.955,-0.945,-0.885,-0.815,-0.72,-0.7,-0.72,-0.825,-1.005,-1.265,-1.545,-1.805,-2.0,-2.145,-2.265,-2.37,-2.41,-2.41,-2.35,-2.345,-2.385,-2.4,-2.345,-2.205,-2.055,-1.985,-1.98,-2.03,-2.07,-2.145,-2.225,-2.305,-2.38,-2.385,-2.335,-2.225,-2.04,-1.795,-1.53,-1.255,-1.005,-0.765,-0.585,-0.48,-0.42,-0.4,-0.38,-0.36,-0.325,-0.275,-0.22,-0.18,-0.15,-0.115,-0.08,-0.06,-0.045,-0.015,-0.01,-0.015,0.015,0.025,0.05,0.07,0.075,0.095,0.12,0.13,0.165,0.185,0.19,0.215,0.235,0.27,0.3,0.31,0.335,0.34,0.37,0.41,0.425,0.46,0.475,0.5,0.52,0.545,0.58,0.605,0.62,0.635,0.655,0.675,0.7,0.705,0.715,0.705,0.725,0.73,0.735,0.73,0.71,0.7,0.695,0.685,0.67,0.625,0.58,0.535,0.535,0.52,0.505,0.465,0.415,0.365,0.35,0.33,0.31,0.29,0.26,0.25,0.23,0.245,0.265,0.285,0.275,0.275,0.265,0.265,0.25,0.24,0.235,0.225,0.21,0.175,0.12,0.085,0.045,0.025,0.015,0.02,0.02,0.01,-0.015,-0.035,-0.065,-0.085,-0.115,-0.155,-0.2,-0.23,-0.255,-0.265,-0.29,-0.325,-0.35,-0.39,-0.42,-0.44,-0.45,-0.47,-0.485,-0.515,-0.52,-0.515,-0.51,-0.52,-0.53,-0.525,-0.52,-0.52,-0.52,-0.525,-0.54,-0.55,-0.555,-0.535,-0.535,-0.525,-0.54,-0.55,-0.55,-0.56,-0.535,-0.53,-0.53,-0.545,-0.535,-0.54,-0.54,-0.555,-0.57,-0.565
1.0,107.0,-0.515,-0.52,-0.525,-0.54,-0.55,-0.565,-0.57,-0.58,-0.585,-0.59,-0.61,-0.615,-0.615,-0.615,-0.625,-0.64,-0.655,-0.63,-0.625,-0.625,-0.63,-0.625,-0.655,-0.645,-0.645,-0.63,-0.635,-0.645,-0.65,-0.655,-0.64,-0.645,-0.65,-0.64,-0.65,-0.66,-0.65,-0.645,-0.635,-0.65,-0.655,-0.65,-0.645,-0.645,-0.64,-0.645,-0.65,-0.65,-0.635,-0.63,-0.635,-0.63,-0.645,-0.645,-0.635,-0.625,-0.62,-0.635,-0.635,-0.645,-0.645,-0.63,-0.63,-0.635,-0.645,-0.635,-0.64,-0.63,-0.63,-0.635,-0.65,-0.66,-0.655,-0.645,-0.645,-0.65,-0.66,-0.655,-0.65,-0.64,-0.645,-0.66,-0.675,-0.69,-0.695,-0.72,-0.765,-0.8,-0.84,-0.885,-0.895,-0.905,-0.915,-0.925,-0.955,-0.98,-0.985,-0.955,-0.895,-0.85,-0.83,-0.865,-0.925,-1.08,-1.305,-1.61,-1.955,-2.265,-2.455,-2.56,-2.66,-2.76,-2.83,-2.865,-2.855,-2.85,-2.84,-2.87,-2.855,-2.82,-2.73,-2.615,-2.5,-2.435,-2.4,-2.38,-2.365,-2.35,-2.385,-2.435,-2.5,-2.505,-2.445,-2.345,-2.2,-2.005,-1.805,-1.58,-1.345,-1.135,-0.92,-0.71,-0.55,-0.45,-0.4,-0.375,-0.36,-0.34,-0.32,-0.3,-0.245,-0.19,-0.145,-0.1,-0.085,-0.07,-0.04,-0.015,0.0,0.01,0.025,0.025,0.05,0.075,0.09,0.105,0.115,0.135,0.145,0.175,0.19,0.21,0.23,0.25,0.3,0.335,0.36,0.37,0.39,0.405,0.435,0.49,0.51,0.54,0.56,0.575,0.6,0.635,0.66,0.68,0.705,0.74,0.77,0.815,0.845,0.88,0.895,0.925,0.975,1.02,1.055,1.105,1.13,1.14,1.165,1.18,1.18,1.175,1.155,1.155,1.16,1.16,1.115,1.05,0.985,0.93,0.885,0.84,0.805,0.75,0.7,0.65,0.61,0.565,0.525,0.455,0.38,0.315,0.26,0.19,0.13,0.065,-0.01,-0.07,-0.14,-0.185,-0.245,-0.29,-0.335,-0.385,-0.4,-0.425,-0.44,-0.475,-0.5,-0.525,-0.54,-0.55,-0.555,-0.575,-0.59,-0.595,-0.595,-0.585,-0.6,-0.615,-0.63,-0.635,-0.625,-0.625,-0.625,-0.64,-0.64,-0.645,-0.635,-0.625,-0.64,-0.635,-0.66,-0.655,-0.66,-0.645,-0.65,-0.655,-0.67,-0.675,-0.655,-0.655,-0.645,-0.67,-0.665,-0.675,-0.67,-0.65,-0.655,-0.655,-0.665,-0.685,-0.66,-0.65,-0.655,-0.67,-0.685,-0.68,-0.67,-0.67,-0.67,-0.67,-0.68,-0.68
1.0,107.0,1.225,1.295,1.365,1.425,1.47,1.495,1.515,1.575,1.645,1.695,1.725,1.7,1.67,1.645,1.64,1.675,1.68,1.67,1.67,1.67,1.665,1.65,1.615,1.585,1.535,1.485,1.45,1.42,1.385,1.33,1.255,1.19,1.115,1.05,0.96,0.875,0.805,0.765,0.735,0.67,0.595,0.52,0.435,0.375,0.315,0.245,0.19,0.135,0.075,0.035,0.01,-0.02,-0.04,-0.075,-0.145,-0.195,-0.25,-0.305,-0.345,-0.36,-0.365,-0.375,-0.4,-0.42,-0.465,-0.485,-0.5,-0.5,-0.5,-0.48,-0.48,-0.5,-0.51,-0.51,-0.515,-0.52,-0.52,-0.545,-0.555,-0.56,-0.545,-0.54,-0.56,-0.585,-0.63,-0.63,-0.655,-0.675,-0.725,-0.77,-0.845,-0.865,-0.875,-0.885,-0.94,-0.98,-1.04,-1.05,-1.02,-0.97,-0.93,-0.925,-1.025,-1.17,-1.425,-1.705,-2.045,-2.37,-2.62,-2.75,-2.815,-2.855,-2.92,-2.98,-2.995,-2.965,-2.905,-2.86,-2.815,-2.755,-2.695,-2.62,-2.52,-2.42,-2.365,-2.375,-2.44,-2.495,-2.54,-2.55,-2.54,-2.515,-2.48,-2.385,-2.265,-2.09,-1.87,-1.595,-1.315,-1.005,-0.725,-0.475,-0.34,-0.27,-0.26,-0.25,-0.215,-0.17,-0.13,-0.09,-0.04,0.01,0.065,0.09,0.115,0.125,0.12,0.145,0.17,0.205,0.235,0.25,0.255,0.275,0.31,0.335,0.355,0.37,0.385,0.41,0.45,0.47,0.495,0.5,0.515,0.545,0.575,0.61,0.635,0.65,0.66,0.69,0.72,0.775,0.8,0.815,0.815,0.825,0.87,0.905,0.94,0.955,0.96,1.0,1.02,1.055,1.055,1.035,1.02,1.01,1.025,1.015,1.0,0.985,0.98,0.97,0.97,0.955,0.915,0.885,0.825,0.815,0.785,0.745,0.695,0.65,0.605,0.56,0.53,0.5,0.45,0.385,0.32,0.285,0.23,0.205,0.17,0.125,0.08,0.04,0.015,-0.035,-0.075,-0.115,-0.15,-0.175,-0.165,-0.165,-0.19,-0.215,-0.245,-0.25,-0.265,-0.25,-0.25,-0.26,-0.265,-0.275,-0.28,-0.265,-0.245,-0.245,-0.23,-0.23,-0.205,-0.195,-0.16,-0.15,-0.12,-0.095,-0.075,-0.05,-0.03,-0.025,0.0,0.03,0.075,0.075,0.055,0.02,-0.045,-0.065,-0.07,-0.065,-0.055,-0.055,-0.075,-0.085,-0.085,-0.095,-0.12,-0.13,-0.175,-0.18,-0.19,-0.21,-0.24,-0.275,-0.32,-0.34,-0.355,-0.395,-0.425,-0.46,-0.485,-0.505,-0.52,-0.52,-0.53,-0.545
1.0,107.0,-0.1,-0.125,-0.17,-0.22,-0.275,-0.31,-0.33,-0.35,-0.355,-0.375,-0.42,-0.44,-0.48,-0.49,-0.49,-0.485,-0.505,-0.51,-0.5,-0.505,-0.525,-0.545,-0.56,-0.565,-0.56,-0.58,-0.58,-0.575,-0.585,-0.565,-0.55,-0.555,-0.555,-0.55,-0.565,-0.56,-0.565,-0.565,-0.57,-0.575,-0.59,-0.595,-0.585,-0.575,-0.56,-0.565,-0.58,-0.58,-0.58,-0.555,-0.545,-0.535,-0.55,-0.575,-0.56,-0.55,-0.545,-0.55,-0.555,-0.54,-0.54,-0.535,-0.565,-0.57,-0.6,-0.615,-0.635,-0.695,-0.755,-0.81,-0.82,-0.795,-0.76,-0.775,-0.805,-0.83,-0.825,-0.785,-0.7,-0.595,-0.51,-0.46,-0.455,-0.485,-0.545,-0.675,-0.85,-1.005,-1.145,-1.235,-1.315,-1.385,-1.415,-1.37,-1.265,-1.18,-1.17,-1.195,-1.2,-1.125,-1.015,-0.92,-0.91,-1.015,-1.145,-1.275,-1.395,-1.525,-1.685,-1.86,-1.99,-2.06,-2.075,-2.025,-1.935,-1.815,-1.625,-1.405,-1.19,-0.975,-0.785,-0.615,-0.505,-0.45,-0.455,-0.45,-0.43,-0.41,-0.385,-0.36,-0.305,-0.25,-0.195,-0.165,-0.13,-0.115,-0.125,-0.115,-0.105,-0.095,-0.09,-0.06,-0.06,-0.04,-0.015,-0.025,-0.01,-0.005,-0.02,0.01,0.05,0.07,0.075,0.065,0.06,0.09,0.14,0.165,0.175,0.165,0.135,0.165,0.18,0.19,0.2,0.23,0.245,0.28,0.28,0.3,0.315,0.33,0.345,0.355,0.37,0.375,0.39,0.385,0.375,0.39,0.42,0.42,0.43,0.43,0.445,0.47,0.475,0.475,0.46,0.455,0.445,0.44,0.425,0.415,0.395,0.38,0.345,0.35,0.335,0.35,0.32,0.305,0.285,0.28,0.255,0.245,0.225,0.185,0.16,0.14,0.115,0.095,0.08,0.055,0.03,0.02,0.03,0.06,0.07,0.08,0.06,0.055,0.08,0.125,0.15,0.205,0.25,0.275,0.3,0.295,0.26,0.255,0.255,0.29,0.29,0.275,0.235,0.21,0.17,0.155,0.15,0.16,0.135,0.12,0.08,0.07,0.08,0.11,0.11,0.1,0.065,0.035,0.02,0.005,-0.01,-0.06,-0.115,-0.145,-0.15,-0.16,-0.17,-0.2,-0.235,-0.25,-0.265,-0.285,-0.295,-0.305,-0.31,-0.3,-0.3,-0.29,-0.29,-0.295,-0.3,-0.325,-0.34,-0.345,-0.32,-0.29,-0.285,-0.28,-0.275,-0.26,-0.245,-0.255,-0.28,-0.29,-0.275,-0.255,-0.26,-0.265,-0.28,-0.27,-0.255,-0.26,-0.29,-0.34,-0.365,-0.345
1.0,107.0,0.87,0.825,0.77,0.72,0.695,0.66,0.59,0.545,0.515,0.49,0.45,0.41,0.36,0.31,0.29,0.25,0.21,0.165,0.14,0.145,0.185,0.16,0.14,0.125,0.095,0.075,0.065,0.05,0.05,0.06,0.06,0.055,0.05,0.015,-0.03,-0.02,0.02,0.02,-0.01,-0.065,-0.09,-0.075,-0.01,0.03,0.03,-0.01,-0.035,-0.035,-0.02,-0.03,-0.03,-0.035,-0.045,-0.04,-0.005,0.03,0.015,-0.035,-0.075,-0.035,-0.005,-0.03,-0.07,-0.095,-0.11,-0.1,-0.095,-0.09,-0.115,-0.155,-0.2,-0.21,-0.23,-0.285,-0.345,-0.38,-0.425,-0.435,-0.445,-0.435,-0.41,-0.335,-0.235,-0.145,-0.145,-0.205,-0.335,-0.56,-0.815,-1.01,-1.12,-1.205,-1.34,-1.445,-1.48,-1.41,-1.28,-1.14,-1.065,-1.07,-1.09,-1.055,-0.99,-0.95,-0.98,-1.095,-1.305,-1.515,-1.755,-1.925,-2.01,-2.015,-1.99,-1.94,-1.89,-1.755,-1.535,-1.305,-1.03,-0.77,-0.505,-0.275,-0.085,0.04,0.075,0.13,0.165,0.205,0.265,0.32,0.365,0.425,0.47,0.55,0.59,0.62,0.62,0.635,0.66,0.7,0.715,0.69,0.645,0.625,0.655,0.69,0.705,0.7,0.71,0.715,0.715,0.71,0.71,0.685,0.7,0.715,0.72,0.695,0.655,0.63,0.62,0.63,0.66,0.65,0.635,0.63,0.66,0.705,0.695,0.66,0.66,0.715,0.725,0.71,0.68,0.66,0.67,0.685,0.705,0.695,0.67,0.67,0.715,0.715,0.68,0.655,0.66,0.68,0.665,0.615,0.575,0.56,0.575,0.54,0.48,0.415,0.385,0.42,0.445,0.395,0.345,0.295,0.255,0.215,0.18,0.165,0.17,0.155,0.105,0.06,0.04,0.035,0.0,-0.03,-0.055,-0.07,-0.09,-0.115,-0.1,-0.09,-0.105,-0.09,-0.065,-0.07,-0.1,-0.135,-0.155,-0.135,-0.12,-0.12,-0.125,-0.155,-0.18,-0.155,-0.135,-0.11,-0.12,-0.135,-0.145,-0.13,-0.11,-0.095,-0.11,-0.14,-0.17,-0.17,-0.15,-0.115,-0.09,-0.09,-0.125,-0.125,-0.115,-0.11,-0.13,-0.105,-0.1,-0.09,-0.115,-0.14,-0.16,-0.155,-0.125,-0.09,-0.085,-0.125,-0.155,-0.155,-0.145,-0.11,-0.105,-0.105,-0.105,-0.13,-0.155,-0.155,-0.13,-0.11,-0.105,-0.13,-0.15,-0.135,-0.14,-0.12,-0.14,-0.13,-0.145,-0.13,-0.11,-0.12,-0.125,-0.135,-0.135,-0.125,-0.135,-0.135,-0.125,-0.145,-0.145,-0.13
1.0,107.0,0.085,0.115,0.155,0.18,0.2,0.205,0.195,0.175,0.175,0.165,0.16,0.17,0.15,0.115,0.065,0.005,-0.035,-0.075,-0.135,-0.175,-0.195,-0.22,-0.265,-0.33,-0.385,-0.44,-0.495,-0.56,-0.61,-0.675,-0.745,-0.785,-0.84,-0.87,-0.925,-0.965,-1.02,-1.05,-1.095,-1.125,-1.16,-1.185,-1.22,-1.265,-1.285,-1.285,-1.305,-1.325,-1.36,-1.375,-1.36,-1.355,-1.36,-1.385,-1.4,-1.415,-1.405,-1.41,-1.425,-1.415,-1.43,-1.43,-1.43,-1.45,-1.465,-1.485,-1.505,-1.55,-1.57,-1.595,-1.63,-1.64,-1.665,-1.685,-1.67,-1.685,-1.695,-1.7,-1.685,-1.655,-1.59,-1.55,-1.525,-1.53,-1.59,-1.68,-1.81,-1.98,-2.14,-2.235,-2.3,-2.365,-2.42,-2.42,-2.36,-2.215,-2.055,-1.9,-1.785,-1.73,-1.685,-1.65,-1.625,-1.62,-1.655,-1.76,-1.97,-2.19,-2.4,-2.545,-2.615,-2.63,-2.61,-2.585,-2.56,-2.475,-2.305,-2.115,-1.905,-1.705,-1.505,-1.325,-1.225,-1.2,-1.22,-1.225,-1.21,-1.195,-1.15,-1.12,-1.09,-1.055,-1.025,-1.0,-0.97,-0.945,-0.935,-0.93,-0.925,-0.915,-0.885,-0.845,-0.835,-0.82,-0.815,-0.8,-0.77,-0.745,-0.715,-0.7,-0.69,-0.685,-0.65,-0.63,-0.605,-0.59,-0.57,-0.56,-0.535,-0.495,-0.465,-0.45,-0.43,-0.405,-0.38,-0.345,-0.32,-0.305,-0.295,-0.26,-0.225,-0.205,-0.185,-0.175,-0.17,-0.15,-0.115,-0.11,-0.1,-0.09,-0.085,-0.075,-0.06,-0.045,-0.055,-0.06,-0.065,-0.085,-0.085,-0.09,-0.11,-0.15,-0.185,-0.21,-0.225,-0.25,-0.26,-0.295,-0.315,-0.355,-0.39,-0.4,-0.435,-0.455,-0.495,-0.54,-0.565,-0.59,-0.6,-0.62,-0.65,-0.685,-0.7,-0.72,-0.74,-0.755,-0.77,-0.78,-0.775,-0.79,-0.8,-0.8,-0.82,-0.83,-0.83,-0.835,-0.84,-0.84,-0.84,-0.84,-0.825,-0.825,-0.81,-0.83,-0.82,-0.84,-0.825,-0.81,-0.8,-0.815,-0.825,-0.815,-0.8,-0.785,-0.77,-0.77,-0.785,-0.775,-0.765,-0.745,-0.74,-0.735,-0.72,-0.72,-0.705,-0.68,-0.66,-0.635,-0.635,-0.63,-0.58,-0.535,-0.5,-0.475,-0.455,-0.455,-0.435,-0.415,-0.4,-0.38,-0.375,-0.35,-0.335,-0.34,-0.36,-0.385,-0.405,-0.42,-0.4,-0.385,-0.375,-0.39,-0.4,-0.4,-0.385,-0.395,-0.41,-0.425,-0.455,-0.485,-0.495,-0.505,-0.51,-0.52,-0.555,-0.575,-0.59,-0.6,-0.625,-0.645
1.0,107.0,1.025,1.045,1.07,1.065,1.09,1.12,1.155,1.165,1.17,1.16,1.155,1.155,1.185,1.17,1.155,1.135,1.115,1.1,1.095,1.06,1.03,0.995,0.96,0.925,0.91,0.87,0.83,0.785,0.74,0.695,0.645,0.595,0.53,0.475,0.43,0.385,0.36,0.29,0.245,0.19,0.155,0.135,0.095,0.06,0.02,-0.025,-0.04,-0.065,-0.07,-0.095,-0.125,-0.15,-0.175,-0.165,-0.17,-0.18,-0.195,-0.215,-0.235,-0.24,-0.24,-0.235,-0.255,-0.28,-0.275,-0.285,-0.3,-0.325,-0.375,-0.42,-0.465,-0.51,-0.545,-0.59,-0.635,-0.645,-0.67,-0.685,-0.715,-0.725,-0.705,-0.69,-0.635,-0.6,-0.57,-0.6,-0.71,-0.905,-1.18,-1.435,-1.625,-1.765,-1.89,-2.01,-2.055,-2.025,-1.89,-1.72,-1.635,-1.585,-1.57,-1.555,-1.54,-1.49,-1.48,-1.525,-1.645,-1.825,-2.005,-2.175,-2.29,-2.31,-2.25,-2.155,-2.0,-1.83,-1.605,-1.385,-1.145,-0.87,-0.635,-0.49,-0.43,-0.435,-0.41,-0.37,-0.31,-0.275,-0.22,-0.155,-0.095,-0.04,0.035,0.085,0.115,0.135,0.17,0.235,0.275,0.29,0.315,0.325,0.35,0.38,0.38,0.365,0.335,0.33,0.32,0.34,0.365,0.38,0.385,0.38,0.395,0.4,0.405,0.4,0.385,0.36,0.355,0.35,0.355,0.345,0.32,0.315,0.295,0.295,0.29,0.28,0.28,0.27,0.255,0.26,0.255,0.25,0.22,0.205,0.19,0.2,0.175,0.17,0.16,0.135,0.1,0.08,0.06,0.04,0.01,-0.04,-0.085,-0.125,-0.155,-0.19,-0.23,-0.285,-0.35,-0.375,-0.42,-0.455,-0.51,-0.555,-0.585,-0.61,-0.645,-0.695,-0.74,-0.77,-0.8,-0.82,-0.835,-0.86,-0.885,-0.91,-0.93,-0.925,-0.94,-0.96,-0.96,-0.99,-0.99,-0.985,-0.985,-0.99,-1.01,-1.03,-1.035,-1.02,-1.01,-1.02,-1.02,-1.025,-1.04,-1.035,-1.025,-1.035,-1.045,-1.055,-1.05,-1.04,-1.055,-1.065,-1.055,-1.065,-1.065,-1.065,-1.065,-1.075,-1.08,-1.095,-1.1,-1.105,-1.1,-1.085,-1.11,-1.125,-1.14,-1.105,-1.1,-1.12,-1.12,-1.13,-1.135,-1.145,-1.145,-1.155,-1.165,-1.16,-1.155,-1.135,-1.125,-1.135,-1.145,-1.15,-1.16,-1.17,-1.15,-1.175,-1.155,-1.17,-1.175,-1.17,-1.165,-1.165,-1.16,-1.18,-1.195,-1.17,-1.175,-1.17,-1.165,-1.175,-1.185,-1.175,-1.175,-1.175,-1.175,-1.175,-1.18,-1.2
1.0,107.0,-0.785,-0.815,-0.85,-0.875,-0.87,-0.885,-0.9,-0.93,-0.95,-0.935,-0.95,-0.955,-0.975,-0.97,-0.985,-1.005,-1.02,-1.015,-1.02,-1.0,-0.98,-0.965,-0.965,-0.98,-0.995,-1.015,-1.02,-1.03,-1.035,-1.03,-1.0,-0.985,-0.965,-0.95,-0.935,-0.94,-0.95,-0.97,-0.975,-0.955,-0.95,-0.945,-0.955,-0.95,-0.955,-0.945,-0.93,-0.93,-0.925,-0.94,-0.945,-0.935,-0.925,-0.925,-0.92,-0.93,-0.935,-0.915,-0.915,-0.92,-0.92,-0.92,-0.92,-0.925,-0.925,-0.95,-0.995,-1.04,-1.09,-1.11,-1.14,-1.16,-1.16,-1.17,-1.19,-1.195,-1.195,-1.165,-1.12,-1.07,-1.005,-0.955,-0.93,-0.96,-1.09,-1.285,-1.54,-1.72,-1.86,-1.97,-2.035,-2.14,-2.21,-2.22,-2.18,-2.125,-2.105,-2.105,-2.115,-2.08,-2.04,-2.01,-1.955,-1.935,-1.945,-1.98,-2.05,-2.135,-2.215,-2.265,-2.285,-2.27,-2.235,-2.22,-2.165,-2.075,-1.945,-1.75,-1.565,-1.375,-1.175,-0.98,-0.84,-0.77,-0.75,-0.75,-0.73,-0.71,-0.66,-0.62,-0.565,-0.52,-0.49,-0.475,-0.455,-0.42,-0.39,-0.385,-0.38,-0.37,-0.345,-0.29,-0.275,-0.27,-0.255,-0.245,-0.235,-0.215,-0.185,-0.17,-0.16,-0.15,-0.125,-0.085,-0.055,-0.035,-0.005,0.02,0.035,0.065,0.095,0.125,0.15,0.17,0.195,0.245,0.295,0.335,0.365,0.375,0.375,0.41,0.445,0.505,0.515,0.525,0.54,0.56,0.585,0.595,0.595,0.595,0.605,0.615,0.62,0.59,0.57,0.54,0.52,0.52,0.515,0.49,0.46,0.41,0.37,0.34,0.31,0.255,0.2,0.16,0.125,0.1,0.065,0.02,-0.025,-0.065,-0.11,-0.13,-0.17,-0.21,-0.24,-0.275,-0.305,-0.335,-0.355,-0.38,-0.41,-0.44,-0.455,-0.44,-0.435,-0.445,-0.45,-0.47,-0.485,-0.47,-0.465,-0.475,-0.485,-0.49,-0.49,-0.48,-0.465,-0.465,-0.465,-0.48,-0.48,-0.47,-0.465,-0.445,-0.445,-0.445,-0.445,-0.435,-0.425,-0.42,-0.43,-0.425,-0.415,-0.4,-0.395,-0.4,-0.41,-0.42,-0.42,-0.405,-0.395,-0.385,-0.395,-0.395,-0.395,-0.36,-0.345,-0.345,-0.365,-0.38,-0.385,-0.375,-0.365,-0.36,-0.365,-0.37,-0.375,-0.36,-0.335,-0.315,-0.33,-0.33,-0.335,-0.325,-0.325,-0.33,-0.33,-0.33,-0.32,-0.31,-0.295,-0.295,-0.32,-0.34,-0.33,-0.305,-0.29,-0.285,-0.28,-0.29,-0.3,-0.285,-0.27,-0.275
1.0,107.0,0.97,1.025,1.045,1.065,1.065,1.065,1.085,1.115,1.105,1.08,1.055,1.055,1.06,1.04,0.97,0.905,0.9,0.92,0.925,0.915,0.84,0.77,0.7,0.655,0.645,0.63,0.595,0.53,0.445,0.345,0.25,0.2,0.195,0.19,0.16,0.07,-0.045,-0.115,-0.16,-0.155,-0.17,-0.18,-0.19,-0.195,-0.185,-0.21,-0.26,-0.33,-0.385,-0.395,-0.38,-0.37,-0.365,-0.38,-0.38,-0.385,-0.405,-0.405,-0.415,-0.45,-0.505,-0.515,-0.515,-0.495,-0.49,-0.5,-0.52,-0.555,-0.585,-0.62,-0.64,-0.675,-0.695,-0.715,-0.745,-0.78,-0.815,-0.81,-0.775,-0.71,-0.65,-0.645,-0.685,-0.73,-0.795,-0.92,-1.07,-1.255,-1.42,-1.51,-1.55,-1.595,-1.66,-1.715,-1.74,-1.735,-1.71,-1.68,-1.665,-1.65,-1.595,-1.52,-1.445,-1.37,-1.355,-1.39,-1.505,-1.605,-1.67,-1.685,-1.69,-1.68,-1.675,-1.645,-1.575,-1.445,-1.27,-1.08,-0.875,-0.675,-0.45,-0.275,-0.165,-0.11,-0.105,-0.08,-0.01,0.035,0.085,0.105,0.125,0.155,0.2,0.22,0.205,0.17,0.15,0.155,0.21,0.22,0.21,0.17,0.155,0.185,0.21,0.22,0.2,0.18,0.155,0.14,0.18,0.225,0.265,0.29,0.295,0.295,0.3,0.28,0.295,0.305,0.34,0.395,0.43,0.435,0.44,0.435,0.475,0.51,0.56,0.585,0.565,0.53,0.525,0.545,0.62,0.66,0.68,0.69,0.68,0.68,0.685,0.695,0.7,0.725,0.755,0.765,0.74,0.69,0.64,0.61,0.62,0.645,0.65,0.655,0.645,0.605,0.56,0.515,0.5,0.48,0.44,0.375,0.335,0.32,0.335,0.36,0.38,0.355,0.305,0.215,0.15,0.135,0.15,0.21,0.19,0.13,0.035,-0.02,-0.03,-0.005,0.02,0.025,0.015,0.02,0.03,0.045,0.04,0.015,0.005,0.01,-0.01,-0.025,-0.035,-0.04,-0.045,-0.04,-0.025,0.005,0.015,0.03,0.06,0.06,0.04,-0.01,-0.05,-0.035,0.01,0.06,0.065,0.025,0.005,-0.015,-0.02,0.015,0.035,0.035,0.05,0.065,0.095,0.12,0.125,0.105,0.075,0.05,0.01,-0.02,-0.025,0.025,0.05,0.06,0.065,0.05,0.05,0.04,0.005,0.005,0.02,0.02,0.045,0.05,0.055,0.07,0.105,0.115,0.09,0.06,0.035,0.015,0.03,0.06,0.075,0.095,0.11,0.115,0.11,0.105,0.08,0.065,0.075,0.065
1.0,107.0,0.3,0.295,0.32,0.355,0.375,0.385,0.385,0.385,0.405,0.43,0.435,0.425,0.425,0.41,0.38,0.345,0.305,0.265,0.26,0.255,0.275,0.29,0.27,0.245,0.235,0.225,0.2,0.215,0.185,0.16,0.12,0.09,0.08,0.06,0.05,0.025,-0.02,-0.055,-0.065,-0.07,-0.08,-0.085,-0.105,-0.105,-0.09,-0.105,-0.105,-0.13,-0.145,-0.165,-0.16,-0.145,-0.145,-0.125,-0.12,-0.105,-0.07,-0.015,0.025,0.06,0.125,0.175,0.245,0.315,0.375,0.44,0.51,0.595,0.71,0.825,0.94,1.05,1.145,1.25,1.35,1.475,1.58,1.68,1.785,1.87,1.95,2.02,2.08,2.11,2.12,2.095,2.125,2.125,2.11,2.06,1.995,1.94,1.88,1.79,1.695,1.645,1.615,1.61,1.555,1.49,1.355,1.16,0.93,0.67,0.45,0.22,-0.055,-0.405,-0.75,-1.075,-1.325,-1.495,-1.635,-1.69,-1.705,-1.655,-1.6,-1.545,-1.485,-1.405,-1.315,-1.24,-1.2,-1.195,-1.205,-1.22,-1.23,-1.255,-1.27,-1.28,-1.3,-1.31,-1.325,-1.355,-1.38,-1.39,-1.425,-1.435,-1.475,-1.51,-1.525,-1.545,-1.585,-1.6,-1.645,-1.67,-1.7,-1.725,-1.75,-1.8,-1.815,-1.855,-1.865,-1.88,-1.9,-1.935,-1.95,-1.965,-1.98,-2.015,-2.02,-2.05,-2.065,-2.08,-2.065,-2.07,-2.08,-2.085,-2.095,-2.1,-2.085,-2.065,-2.065,-2.055,-2.055,-2.045,-2.02,-1.99,-1.99,-1.955,-1.945,-1.925,-1.89,-1.845,-1.83,-1.795,-1.775,-1.73,-1.695,-1.65,-1.615,-1.59,-1.555,-1.51,-1.44,-1.4,-1.36,-1.32,-1.27,-1.235,-1.165,-1.125,-1.07,-1.04,-0.99,-0.935,-0.89,-0.825,-0.785,-0.76,-0.715,-0.68,-0.625,-0.585,-0.545,-0.535,-0.505,-0.49,-0.47,-0.43,-0.4,-0.385,-0.375,-0.37,-0.34,-0.315,-0.315,-0.3,-0.3,-0.3,-0.29,-0.27,-0.265,-0.265,-0.265,-0.27,-0.255,-0.24,-0.245,-0.275,-0.28,-0.29,-0.275,-0.255,-0.24,-0.255,-0.26,-0.26,-0.24,-0.215,-0.21,-0.205,-0.195,-0.18,-0.14,-0.11,-0.09,-0.06,-0.035,-0.01,0.035,0.065,0.09,0.095,0.105,0.115,0.145,0.17,0.18,0.155,0.12,0.085,0.095,0.1,0.11,0.11,0.105,0.095,0.1,0.1,0.085,0.065,0.035,0.025,0.015,0.01,-0.02,-0.03,-0.065,-0.085,-0.085,-0.09,-0.1,-0.125,-0.125,-0.145,-0.165,-0.185,-0.185,-0.19
1.0,107.0,0.7,0.71,0.71,0.72,0.74,0.76,0.775,0.775,0.775,0.785,0.79,0.79,0.78,0.765,0.73,0.735,0.73,0.71,0.695,0.675,0.645,0.635,0.635,0.61,0.585,0.56,0.525,0.52,0.505,0.49,0.46,0.435,0.405,0.39,0.345,0.285,0.215,0.125,0.055,0.01,-0.04,-0.09,-0.13,-0.165,-0.195,-0.22,-0.26,-0.305,-0.36,-0.41,-0.455,-0.485,-0.52,-0.545,-0.585,-0.615,-0.65,-0.675,-0.72,-0.75,-0.775,-0.805,-0.825,-0.85,-0.885,-0.925,-0.995,-1.055,-1.11,-1.135,-1.17,-1.205,-1.235,-1.265,-1.3,-1.3,-1.28,-1.235,-1.19,-1.16,-1.135,-1.14,-1.185,-1.3,-1.47,-1.68,-1.855,-1.96,-2.02,-2.09,-2.15,-2.23,-2.285,-2.27,-2.24,-2.2,-2.195,-2.22,-2.23,-2.19,-2.12,-2.01,-1.945,-1.94,-1.985,-2.07,-2.18,-2.34,-2.495,-2.585,-2.615,-2.59,-2.56,-2.53,-2.45,-2.325,-2.145,-1.915,-1.68,-1.48,-1.3,-1.155,-1.015,-0.925,-0.865,-0.835,-0.835,-0.815,-0.785,-0.745,-0.7,-0.65,-0.63,-0.61,-0.595,-0.57,-0.56,-0.58,-0.59,-0.58,-0.55,-0.535,-0.505,-0.49,-0.495,-0.48,-0.455,-0.435,-0.43,-0.43,-0.425,-0.44,-0.395,-0.365,-0.335,-0.32,-0.325,-0.335,-0.32,-0.3,-0.27,-0.265,-0.265,-0.265,-0.26,-0.245,-0.22,-0.205,-0.2,-0.195,-0.2,-0.185,-0.175,-0.17,-0.165,-0.175,-0.17,-0.16,-0.14,-0.145,-0.16,-0.16,-0.17,-0.17,-0.165,-0.18,-0.18,-0.19,-0.205,-0.2,-0.195,-0.21,-0.23,-0.255,-0.285,-0.305,-0.32,-0.325,-0.33,-0.35,-0.385,-0.405,-0.42,-0.43,-0.44,-0.47,-0.49,-0.5,-0.495,-0.525,-0.54,-0.565,-0.59,-0.61,-0.6,-0.61,-0.63,-0.65,-0.65,-0.645,-0.635,-0.635,-0.66,-0.675,-0.685,-0.68,-0.685,-0.685,-0.695,-0.69,-0.695,-0.685,-0.675,-0.67,-0.67,-0.675,-0.675,-0.67,-0.68,-0.695,-0.71,-0.705,-0.72,-0.705,-0.69,-0.685,-0.69,-0.695,-0.715,-0.705,-0.69,-0.685,-0.675,-0.67,-0.665,-0.675,-0.665,-0.655,-0.66,-0.67,-0.685,-0.675,-0.675,-0.665,-0.675,-0.67,-0.68,-0.675,-0.66,-0.655,-0.675,-0.7,-0.695,-0.67,-0.65,-0.67,-0.675,-0.67,-0.66,-0.625,-0.6,-0.595,-0.59,-0.58,-0.55,-0.52,-0.49,-0.47,-0.455,-0.425,-0.415,-0.38,-0.355,-0.35,-0.37,-0.4,-0.435,-0.425,-0.425,-0.43
1.0,107.0,0.05,0.025,0.005,-0.03,-0.05,-0.07,-0.08,-0.09,-0.105,-0.115,-0.13,-0.14,-0.135,-0.145,-0.155,-0.17,-0.19,-0.215,-0.18,-0.175,-0.18,-0.19,-0.215,-0.215,-0.205,-0.19,-0.19,-0.215,-0.205,-0.22,-0.205,-0.205,-0.21,-0.22,-0.225,-0.225,-0.215,-0.21,-0.215,-0.21,-0.225,-0.225,-0.215,-0.2,-0.205,-0.215,-0.225,-0.22,-0.215,-0.21,-0.2,-0.215,-0.22,-0.21,-0.21,-0.205,-0.195,-0.22,-0.22,-0.23,-0.22,-0.215,-0.235,-0.245,-0.26,-0.285,-0.3,-0.33,-0.375,-0.445,-0.51,-0.56,-0.58,-0.59,-0.635,-0.66,-0.685,-0.705,-0.655,-0.565,-0.485,-0.435,-0.44,-0.5,-0.585,-0.735,-0.92,-1.105,-1.24,-1.32,-1.365,-1.425,-1.505,-1.54,-1.525,-1.505,-1.535,-1.625,-1.725,-1.745,-1.655,-1.54,-1.46,-1.465,-1.505,-1.55,-1.615,-1.71,-1.82,-1.925,-1.98,-2.01,-2.005,-1.99,-1.92,-1.79,-1.62,-1.405,-1.14,-0.89,-0.66,-0.475,-0.34,-0.255,-0.215,-0.205,-0.19,-0.17,-0.16,-0.145,-0.135,-0.115,-0.08,-0.04,-0.035,-0.025,-0.02,-0.005,0.015,0.035,0.025,0.03,0.04,0.045,0.075,0.085,0.09,0.09,0.095,0.115,0.13,0.155,0.15,0.16,0.155,0.165,0.205,0.215,0.225,0.235,0.24,0.255,0.28,0.3,0.305,0.32,0.32,0.34,0.36,0.39,0.4,0.405,0.41,0.425,0.435,0.46,0.45,0.465,0.47,0.465,0.48,0.485,0.48,0.485,0.485,0.475,0.485,0.5,0.485,0.47,0.455,0.44,0.44,0.43,0.41,0.375,0.36,0.325,0.32,0.315,0.295,0.27,0.24,0.215,0.205,0.185,0.17,0.155,0.13,0.105,0.08,0.075,0.07,0.05,0.02,-0.005,0.0,-0.005,-0.015,-0.035,-0.065,-0.075,-0.055,-0.05,-0.055,-0.08,-0.085,-0.08,-0.085,-0.065,-0.095,-0.085,-0.09,-0.09,-0.09,-0.07,-0.075,-0.1,-0.105,-0.115,-0.105,-0.08,-0.09,-0.1,-0.105,-0.1,-0.095,-0.075,-0.1,-0.095,-0.105,-0.115,-0.1,-0.085,-0.09,-0.08,-0.09,-0.085,-0.09,-0.065,-0.075,-0.08,-0.09,-0.09,-0.085,-0.07,-0.075,-0.075,-0.08,-0.09,-0.08,-0.075,-0.07,-0.08,-0.085,-0.09,-0.085,-0.06,-0.065,-0.075,-0.08,-0.075,-0.065,-0.07,-0.065,-0.08,-0.085,-0.09,-0.08,-0.065,-0.065,-0.065,-0.09,-0.08,-0.065,-0.06,-0.075,-0.075,-0.085,-0.085
1.0,107.0,0.12,0.075,0.04,-0.005,-0.045,-0.08,-0.12,-0.165,-0.215,-0.24,-0.27,-0.285,-0.31,-0.33,-0.365,-0.4,-0.405,-0.41,-0.43,-0.455,-0.48,-0.47,-0.48,-0.48,-0.485,-0.495,-0.505,-0.49,-0.485,-0.465,-0.46,-0.455,-0.46,-0.445,-0.415,-0.375,-0.36,-0.34,-0.325,-0.3,-0.265,-0.23,-0.21,-0.205,-0.205,-0.18,-0.185,-0.195,-0.23,-0.275,-0.315,-0.31,-0.315,-0.31,-0.315,-0.32,-0.325,-0.305,-0.285,-0.255,-0.24,-0.21,-0.165,-0.105,-0.04,0.02,0.09,0.15,0.22,0.31,0.42,0.545,0.655,0.74,0.815,0.89,1.005,1.125,1.235,1.33,1.415,1.51,1.6,1.655,1.67,1.675,1.665,1.685,1.675,1.605,1.52,1.44,1.355,1.24,1.07,0.945,0.9,0.875,0.83,0.735,0.615,0.49,0.325,0.105,-0.15,-0.415,-0.675,-0.925,-1.125,-1.325,-1.565,-1.85,-2.095,-2.22,-2.23,-2.19,-2.135,-2.06,-1.995,-1.91,-1.83,-1.76,-1.715,-1.705,-1.715,-1.725,-1.73,-1.75,-1.77,-1.775,-1.79,-1.8,-1.815,-1.83,-1.875,-1.895,-1.905,-1.915,-1.945,-1.97,-2.0,-2.02,-2.035,-2.05,-2.065,-2.09,-2.13,-2.15,-2.15,-2.175,-2.195,-2.22,-2.24,-2.265,-2.265,-2.265,-2.28,-2.305,-2.325,-2.33,-2.34,-2.325,-2.32,-2.345,-2.35,-2.35,-2.33,-2.325,-2.305,-2.31,-2.315,-2.285,-2.265,-2.255,-2.23,-2.21,-2.205,-2.18,-2.155,-2.105,-2.085,-2.065,-2.04,-1.995,-1.97,-1.925,-1.885,-1.855,-1.825,-1.78,-1.745,-1.705,-1.665,-1.635,-1.61,-1.585,-1.535,-1.49,-1.45,-1.42,-1.395,-1.38,-1.33,-1.3,-1.26,-1.225,-1.205,-1.17,-1.125,-1.105,-1.075,-1.055,-1.035,-1.0,-0.97,-0.94,-0.925,-0.905,-0.9,-0.88,-0.855,-0.825,-0.8,-0.8,-0.79,-0.775,-0.755,-0.76,-0.745,-0.745,-0.745,-0.74,-0.725,-0.72,-0.72,-0.705,-0.735,-0.725,-0.725,-0.72,-0.735,-0.735,-0.73,-0.725,-0.72,-0.715,-0.72,-0.73,-0.715,-0.715,-0.7,-0.695,-0.695,-0.695,-0.7,-0.7,-0.685,-0.67,-0.665,-0.67,-0.675,-0.665,-0.65,-0.63,-0.63,-0.635,-0.64,-0.63,-0.61,-0.6,-0.605,-0.6,-0.595,-0.6,-0.585,-0.575,-0.57,-0.58,-0.58,-0.565,-0.56,-0.545,-0.535,-0.535,-0.535,-0.54,-0.515,-0.495,-0.485,-0.465,-0.465,-0.45,-0.41,-0.395,-0.365,-0.35,-0.32,-0.29,-0.255,-0.23
1.0,107.0,1.26,1.255,1.26,1.255,1.235,1.2,1.17,1.145,1.14,1.125,1.09,1.045,1.025,0.99,0.98,0.955,0.92,0.88,0.815,0.775,0.755,0.715,0.67,0.615,0.565,0.505,0.465,0.43,0.38,0.33,0.28,0.235,0.195,0.16,0.135,0.08,0.025,-0.01,-0.03,-0.035,-0.065,-0.095,-0.12,-0.13,-0.15,-0.17,-0.185,-0.205,-0.2,-0.215,-0.215,-0.235,-0.235,-0.26,-0.26,-0.27,-0.26,-0.27,-0.265,-0.285,-0.3,-0.305,-0.3,-0.295,-0.31,-0.325,-0.36,-0.4,-0.42,-0.465,-0.525,-0.6,-0.655,-0.68,-0.69,-0.72,-0.755,-0.77,-0.77,-0.72,-0.625,-0.555,-0.525,-0.555,-0.625,-0.775,-0.95,-1.175,-1.315,-1.43,-1.495,-1.555,-1.61,-1.635,-1.61,-1.55,-1.505,-1.465,-1.46,-1.445,-1.4,-1.3,-1.18,-1.09,-1.08,-1.195,-1.38,-1.625,-1.865,-2.035,-2.085,-2.05,-2.015,-1.98,-1.885,-1.745,-1.5,-1.25,-1.03,-0.815,-0.605,-0.44,-0.3,-0.25,-0.235,-0.24,-0.235,-0.21,-0.165,-0.125,-0.095,-0.07,-0.05,-0.04,-0.015,-0.005,0.02,0.02,0.02,0.035,0.06,0.08,0.075,0.085,0.065,0.09,0.115,0.125,0.14,0.145,0.155,0.17,0.18,0.195,0.205,0.2,0.215,0.225,0.235,0.265,0.275,0.29,0.275,0.28,0.295,0.315,0.32,0.325,0.34,0.35,0.36,0.385,0.395,0.39,0.39,0.38,0.395,0.415,0.41,0.405,0.395,0.38,0.38,0.4,0.375,0.38,0.365,0.35,0.335,0.345,0.34,0.31,0.285,0.265,0.255,0.24,0.24,0.215,0.2,0.17,0.165,0.15,0.135,0.11,0.09,0.07,0.055,0.04,0.035,0.01,-0.02,-0.04,-0.05,-0.045,-0.045,-0.045,-0.05,-0.055,-0.03,-0.025,-0.01,0.01,0.015,0.045,0.07,0.1,0.125,0.145,0.15,0.175,0.195,0.21,0.185,0.14,0.095,0.055,0.06,0.06,0.055,0.045,0.045,0.025,0.03,0.02,0.005,-0.01,-0.025,-0.05,-0.08,-0.1,-0.11,-0.15,-0.16,-0.19,-0.205,-0.225,-0.23,-0.255,-0.27,-0.29,-0.29,-0.295,-0.295,-0.325,-0.34,-0.365,-0.36,-0.355,-0.35,-0.36,-0.37,-0.375,-0.37,-0.365,-0.365,-0.385,-0.4,-0.405,-0.385,-0.385,-0.39,-0.385,-0.39,-0.4,-0.38,-0.38,-0.395,-0.39,-0.41,-0.425,-0.415,-0.4,-0.395,-0.405,-0.42,-0.42,-0.42,-0.395,-0.4,-0.405
1.0,107.0,1.05,1.045,1.05,1.045,1.035,1.035,1.02,0.97,0.905,0.83,0.765,0.725,0.68,0.635,0.6,0.545,0.5,0.45,0.385,0.31,0.235,0.17,0.1,0.035,-0.025,-0.09,-0.15,-0.225,-0.26,-0.32,-0.37,-0.43,-0.485,-0.51,-0.535,-0.555,-0.575,-0.6,-0.63,-0.655,-0.68,-0.685,-0.705,-0.715,-0.715,-0.725,-0.73,-0.735,-0.745,-0.75,-0.755,-0.77,-0.74,-0.75,-0.755,-0.77,-0.775,-0.785,-0.79,-0.775,-0.785,-0.795,-0.82,-0.85,-0.86,-0.89,-0.94,-0.995,-1.05,-1.105,-1.13,-1.155,-1.185,-1.215,-1.255,-1.275,-1.255,-1.215,-1.16,-1.085,-1.04,-1.035,-1.075,-1.17,-1.345,-1.56,-1.745,-1.87,-1.915,-1.95,-2.025,-2.1,-2.14,-2.115,-2.04,-1.965,-1.96,-1.965,-1.945,-1.865,-1.725,-1.575,-1.5,-1.525,-1.645,-1.835,-2.065,-2.28,-2.465,-2.545,-2.57,-2.555,-2.535,-2.505,-2.45,-2.325,-2.145,-1.9,-1.615,-1.35,-1.14,-0.95,-0.825,-0.765,-0.725,-0.705,-0.68,-0.665,-0.64,-0.61,-0.555,-0.51,-0.48,-0.475,-0.46,-0.45,-0.425,-0.395,-0.39,-0.38,-0.375,-0.365,-0.355,-0.325,-0.315,-0.31,-0.305,-0.3,-0.27,-0.245,-0.24,-0.23,-0.23,-0.215,-0.195,-0.165,-0.165,-0.155,-0.145,-0.15,-0.115,-0.095,-0.09,-0.09,-0.07,-0.065,-0.04,-0.02,-0.01,0.0,0.01,0.005,0.01,0.045,0.045,0.045,0.04,0.055,0.065,0.075,0.075,0.09,0.07,0.065,0.07,0.075,0.06,0.05,0.035,0.03,0.02,0.015,0.01,-0.01,-0.035,-0.06,-0.065,-0.075,-0.11,-0.13,-0.135,-0.155,-0.17,-0.175,-0.205,-0.23,-0.255,-0.255,-0.26,-0.26,-0.295,-0.32,-0.34,-0.37,-0.375,-0.38,-0.395,-0.41,-0.44,-0.445,-0.44,-0.46,-0.47,-0.485,-0.48,-0.485,-0.485,-0.475,-0.48,-0.485,-0.495,-0.515,-0.5,-0.5,-0.5,-0.505,-0.5,-0.515,-0.51,-0.495,-0.505,-0.51,-0.53,-0.53,-0.515,-0.495,-0.49,-0.495,-0.51,-0.51,-0.495,-0.5,-0.495,-0.495,-0.49,-0.5,-0.47,-0.44,-0.425,-0.415,-0.405,-0.395,-0.37,-0.34,-0.305,-0.28,-0.265,-0.245,-0.215,-0.19,-0.17,-0.16,-0.145,-0.135,-0.11,-0.105,-0.155,-0.19,-0.215,-0.23,-0.225,-0.225,-0.22,-0.245,-0.245,-0.26,-0.26,-0.275,-0.28,-0.305,-0.345,-0.375,-0.37,-0.385,-0.42,-0.44,-0.465,-0.475,-0.485,-0.505
1.0,107.0,0.875,0.89,0.915,0.92,0.935,0.965,0.99,1.005,1.01,1.005,1.015,1.025,1.03,1.02,1.0,0.985,0.965,0.965,0.955,0.925,0.9,0.86,0.83,0.82,0.79,0.755,0.71,0.655,0.62,0.585,0.545,0.5,0.435,0.37,0.33,0.29,0.255,0.21,0.145,0.095,0.055,0.02,-0.015,-0.065,-0.095,-0.13,-0.165,-0.19,-0.2,-0.215,-0.245,-0.28,-0.3,-0.3,-0.28,-0.27,-0.275,-0.27,-0.27,-0.24,-0.2,-0.195,-0.175,-0.19,-0.155,-0.12,-0.115,-0.105,-0.135,-0.175,-0.26,-0.355,-0.44,-0.51,-0.55,-0.6,-0.625,-0.64,-0.68,-0.68,-0.65,-0.595,-0.535,-0.51,-0.535,-0.615,-0.77,-1.015,-1.265,-1.465,-1.575,-1.68,-1.795,-1.91,-1.98,-1.975,-1.925,-1.9,-1.915,-1.96,-1.92,-1.845,-1.73,-1.625,-1.6,-1.675,-1.85,-2.04,-2.215,-2.35,-2.395,-2.39,-2.35,-2.28,-2.17,-1.995,-1.765,-1.5,-1.255,-1.035,-0.84,-0.68,-0.6,-0.575,-0.565,-0.555,-0.54,-0.5,-0.49,-0.455,-0.42,-0.395,-0.36,-0.355,-0.325,-0.345,-0.33,-0.305,-0.3,-0.28,-0.275,-0.29,-0.265,-0.245,-0.235,-0.215,-0.21,-0.2,-0.19,-0.16,-0.15,-0.14,-0.135,-0.135,-0.12,-0.095,-0.075,-0.07,-0.06,-0.055,-0.045,-0.02,0.0,0.015,0.01,0.01,0.03,0.05,0.06,0.07,0.06,0.055,0.07,0.085,0.085,0.095,0.095,0.075,0.095,0.1,0.095,0.085,0.08,0.07,0.07,0.07,0.06,0.055,0.025,-0.005,-0.01,-0.015,-0.03,-0.045,-0.07,-0.085,-0.11,-0.125,-0.125,-0.135,-0.15,-0.19,-0.195,-0.205,-0.22,-0.225,-0.25,-0.29,-0.295,-0.3,-0.31,-0.325,-0.325,-0.355,-0.35,-0.355,-0.35,-0.36,-0.395,-0.4,-0.405,-0.39,-0.38,-0.39,-0.39,-0.405,-0.395,-0.385,-0.39,-0.4,-0.4,-0.41,-0.405,-0.405,-0.39,-0.395,-0.395,-0.4,-0.405,-0.41,-0.395,-0.39,-0.405,-0.42,-0.405,-0.39,-0.39,-0.39,-0.38,-0.39,-0.39,-0.37,-0.355,-0.37,-0.365,-0.375,-0.375,-0.37,-0.36,-0.355,-0.365,-0.36,-0.365,-0.355,-0.36,-0.365,-0.365,-0.375,-0.38,-0.365,-0.37,-0.365,-0.37,-0.385,-0.38,-0.38,-0.38,-0.38,-0.375,-0.385,-0.38,-0.375,-0.365,-0.365,-0.385,-0.395,-0.395,-0.385,-0.38,-0.39,-0.39,-0.4,-0.395,-0.37,-0.385,-0.385,-0.395,-0.4,-0.395,-0.39
1.0,107.0,0.815,0.79,0.765,0.755,0.735,0.69,0.655,0.61,0.585,0.555,0.52,0.47,0.415,0.37,0.325,0.285,0.24,0.185,0.135,0.075,0.045,-0.005,-0.035,-0.075,-0.135,-0.175,-0.205,-0.225,-0.25,-0.285,-0.325,-0.36,-0.37,-0.385,-0.4,-0.425,-0.45,-0.475,-0.47,-0.46,-0.475,-0.49,-0.51,-0.52,-0.5,-0.5,-0.51,-0.53,-0.545,-0.55,-0.545,-0.535,-0.53,-0.54,-0.55,-0.54,-0.54,-0.535,-0.535,-0.525,-0.545,-0.545,-0.545,-0.535,-0.54,-0.555,-0.575,-0.585,-0.615,-0.63,-0.68,-0.72,-0.785,-0.83,-0.87,-0.89,-0.905,-0.935,-0.97,-1.0,-0.98,-0.93,-0.85,-0.77,-0.75,-0.775,-0.84,-0.985,-1.185,-1.4,-1.535,-1.615,-1.65,-1.695,-1.75,-1.755,-1.725,-1.675,-1.65,-1.655,-1.665,-1.615,-1.52,-1.405,-1.32,-1.32,-1.44,-1.65,-1.885,-2.085,-2.145,-2.105,-2.05,-2.01,-1.94,-1.785,-1.535,-1.265,-1.005,-0.755,-0.525,-0.325,-0.19,-0.115,-0.115,-0.145,-0.175,-0.18,-0.145,-0.1,-0.065,-0.03,-0.03,-0.025,-0.015,-0.02,-0.025,-0.04,-0.05,-0.065,-0.055,-0.055,-0.065,-0.08,-0.095,-0.12,-0.12,-0.11,-0.11,-0.11,-0.115,-0.115,-0.095,-0.095,-0.085,-0.09,-0.095,-0.1,-0.075,-0.05,-0.045,-0.03,-0.025,-0.02,0.0,0.01,0.025,0.02,0.02,0.025,0.04,0.045,0.055,0.06,0.045,0.04,0.05,0.065,0.06,0.065,0.07,0.045,0.06,0.05,0.055,0.04,0.025,-0.005,0.005,-0.015,-0.02,-0.03,-0.06,-0.09,-0.105,-0.1,-0.1,-0.125,-0.155,-0.175,-0.18,-0.19,-0.19,-0.215,-0.235,-0.26,-0.27,-0.275,-0.285,-0.3,-0.31,-0.325,-0.33,-0.33,-0.345,-0.35,-0.37,-0.38,-0.38,-0.365,-0.375,-0.365,-0.38,-0.38,-0.38,-0.385,-0.37,-0.38,-0.395,-0.39,-0.385,-0.365,-0.365,-0.375,-0.365,-0.37,-0.365,-0.355,-0.36,-0.36,-0.365,-0.375,-0.375,-0.355,-0.35,-0.35,-0.36,-0.355,-0.355,-0.345,-0.335,-0.35,-0.345,-0.35,-0.33,-0.325,-0.335,-0.34,-0.345,-0.345,-0.35,-0.335,-0.33,-0.355,-0.35,-0.35,-0.345,-0.33,-0.325,-0.34,-0.34,-0.35,-0.34,-0.32,-0.335,-0.335,-0.34,-0.345,-0.33,-0.325,-0.315,-0.32,-0.33,-0.33,-0.32,-0.315,-0.32,-0.325,-0.315,-0.33,-0.315,-0.315,-0.31,-0.315,-0.31,-0.32,-0.315,-0.305,-0.305,-0.29
1.0,107.0,0.35,0.38,0.395,0.41,0.415,0.435,0.465,0.485,0.5,0.52,0.5,0.52,0.525,0.535,0.535,0.52,0.505,0.505,0.505,0.5,0.485,0.455,0.42,0.41,0.385,0.375,0.34,0.305,0.27,0.245,0.215,0.185,0.15,0.115,0.06,0.03,0.005,-0.025,-0.075,-0.115,-0.165,-0.2,-0.24,-0.275,-0.305,-0.34,-0.38,-0.415,-0.435,-0.46,-0.485,-0.525,-0.565,-0.57,-0.59,-0.6,-0.625,-0.64,-0.67,-0.675,-0.68,-0.695,-0.71,-0.725,-0.76,-0.77,-0.785,-0.8,-0.85,-0.9,-0.955,-0.99,-1.005,-1.015,-1.035,-1.06,-1.1,-1.105,-1.085,-1.03,-0.955,-0.94,-0.935,-0.955,-0.985,-1.08,-1.24,-1.405,-1.515,-1.55,-1.605,-1.655,-1.725,-1.775,-1.79,-1.755,-1.72,-1.71,-1.72,-1.71,-1.66,-1.555,-1.445,-1.385,-1.385,-1.485,-1.65,-1.855,-2.02,-2.14,-2.195,-2.22,-2.23,-2.195,-2.105,-1.95,-1.755,-1.56,-1.38,-1.205,-1.03,-0.91,-0.865,-0.845,-0.835,-0.8,-0.73,-0.685,-0.645,-0.595,-0.555,-0.51,-0.47,-0.43,-0.4,-0.39,-0.365,-0.345,-0.31,-0.3,-0.305,-0.335,-0.355,-0.37,-0.37,-0.345,-0.34,-0.33,-0.325,-0.32,-0.31,-0.31,-0.325,-0.335,-0.365,-0.355,-0.365,-0.36,-0.365,-0.395,-0.41,-0.425,-0.42,-0.43,-0.435,-0.445,-0.465,-0.45,-0.455,-0.445,-0.455,-0.465,-0.49,-0.485,-0.485,-0.465,-0.47,-0.48,-0.485,-0.5,-0.495,-0.49,-0.485,-0.495,-0.51,-0.505,-0.52,-0.515,-0.53,-0.54,-0.565,-0.57,-0.57,-0.575,-0.595,-0.605,-0.625,-0.64,-0.625,-0.64,-0.65,-0.675,-0.685,-0.685,-0.69,-0.695,-0.7,-0.72,-0.745,-0.745,-0.74,-0.75,-0.765,-0.77,-0.785,-0.79,-0.77,-0.765,-0.79,-0.805,-0.805,-0.805,-0.795,-0.8,-0.805,-0.82,-0.825,-0.82,-0.805,-0.805,-0.8,-0.81,-0.825,-0.825,-0.805,-0.8,-0.805,-0.82,-0.82,-0.82,-0.81,-0.815,-0.8,-0.815,-0.815,-0.82,-0.805,-0.795,-0.805,-0.805,-0.805,-0.8,-0.79,-0.785,-0.785,-0.785,-0.79,-0.785,-0.765,-0.76,-0.765,-0.76,-0.78,-0.775,-0.77,-0.755,-0.765,-0.76,-0.775,-0.76,-0.755,-0.755,-0.74,-0.75,-0.765,-0.75,-0.745,-0.75,-0.745,-0.745,-0.755,-0.735,-0.725,-0.72,-0.725,-0.73,-0.735,-0.725,-0.715,-0.715,-0.72,-0.725,-0.74,-0.71,-0.71,-0.71,-0.725,-0.715,-0.72,-0.71
1.0,107.0,0.98,0.995,0.995,1.0,1.01,1.025,1.035,1.045,1.035,1.005,1.025,1.02,1.02,1.015,0.99,0.975,0.96,0.95,0.945,0.915,0.88,0.84,0.82,0.8,0.785,0.76,0.725,0.675,0.63,0.605,0.585,0.55,0.495,0.435,0.405,0.37,0.345,0.31,0.265,0.22,0.2,0.165,0.14,0.105,0.06,0.025,0.005,-0.01,-0.015,-0.045,-0.07,-0.09,-0.095,-0.105,-0.115,-0.125,-0.145,-0.17,-0.17,-0.175,-0.17,-0.19,-0.21,-0.25,-0.28,-0.295,-0.32,-0.375,-0.43,-0.475,-0.5,-0.52,-0.545,-0.555,-0.59,-0.63,-0.635,-0.585,-0.525,-0.465,-0.415,-0.41,-0.42,-0.465,-0.555,-0.73,-0.925,-1.07,-1.155,-1.195,-1.25,-1.335,-1.4,-1.415,-1.38,-1.33,-1.315,-1.335,-1.33,-1.29,-1.19,-1.075,-0.98,-0.95,-1.01,-1.155,-1.355,-1.57,-1.78,-1.9,-1.935,-1.945,-1.915,-1.865,-1.78,-1.615,-1.425,-1.205,-0.97,-0.75,-0.55,-0.375,-0.245,-0.18,-0.125,-0.085,-0.03,0.01,0.065,0.095,0.145,0.195,0.25,0.285,0.305,0.295,0.275,0.255,0.26,0.25,0.23,0.225,0.24,0.275,0.29,0.285,0.275,0.26,0.27,0.275,0.28,0.27,0.265,0.24,0.23,0.225,0.235,0.225,0.21,0.185,0.18,0.175,0.18,0.19,0.17,0.165,0.165,0.18,0.19,0.185,0.175,0.155,0.17,0.165,0.175,0.18,0.175,0.17,0.175,0.185,0.18,0.19,0.185,0.17,0.185,0.19,0.19,0.18,0.175,0.145,0.16,0.155,0.16,0.145,0.135,0.115,0.115,0.115,0.095,0.085,0.075,0.055,0.05,0.04,0.035,0.025,0.005,-0.015,-0.01,-0.025,-0.03,-0.04,-0.06,-0.09,-0.085,-0.09,-0.1,-0.11,-0.14,-0.165,-0.165,-0.16,-0.165,-0.175,-0.19,-0.215,-0.21,-0.215,-0.215,-0.21,-0.23,-0.25,-0.25,-0.24,-0.225,-0.235,-0.235,-0.25,-0.245,-0.24,-0.22,-0.23,-0.23,-0.245,-0.235,-0.225,-0.225,-0.235,-0.235,-0.255,-0.245,-0.23,-0.23,-0.22,-0.225,-0.23,-0.225,-0.215,-0.21,-0.21,-0.205,-0.21,-0.21,-0.2,-0.195,-0.19,-0.205,-0.2,-0.19,-0.19,-0.19,-0.19,-0.185,-0.2,-0.195,-0.19,-0.18,-0.185,-0.19,-0.2,-0.195,-0.195,-0.19,-0.18,-0.19,-0.21,-0.2,-0.18,-0.175,-0.17,-0.185,-0.19,-0.185,-0.175,-0.175,-0.18,-0.195,-0.2,-0.2,-0.18
1.0,107.0,0.435,0.445,0.455,0.455,0.46,0.47,0.475,0.465,0.455,0.435,0.42,0.4,0.395,0.36,0.345,0.3,0.265,0.24,0.21,0.175,0.13,0.08,0.04,-0.005,-0.04,-0.085,-0.135,-0.185,-0.225,-0.265,-0.29,-0.33,-0.37,-0.415,-0.45,-0.47,-0.5,-0.52,-0.56,-0.595,-0.625,-0.655,-0.67,-0.68,-0.705,-0.73,-0.75,-0.76,-0.77,-0.785,-0.795,-0.815,-0.825,-0.825,-0.815,-0.825,-0.835,-0.845,-0.85,-0.86,-0.865,-0.85,-0.865,-0.885,-0.895,-0.925,-0.935,-0.98,-1.02,-1.06,-1.095,-1.11,-1.1,-1.12,-1.145,-1.175,-1.2,-1.175,-1.135,-1.08,-1.035,-1.02,-1.01,-1.045,-1.095,-1.22,-1.395,-1.56,-1.66,-1.715,-1.75,-1.83,-1.91,-1.97,-1.99,-1.95,-1.93,-1.93,-1.925,-1.905,-1.83,-1.73,-1.65,-1.61,-1.645,-1.73,-1.85,-1.96,-2.06,-2.125,-2.155,-2.16,-2.135,-2.07,-1.93,-1.785,-1.625,-1.48,-1.335,-1.165,-1.0,-0.885,-0.82,-0.81,-0.77,-0.72,-0.66,-0.61,-0.555,-0.51,-0.465,-0.415,-0.39,-0.365,-0.36,-0.35,-0.36,-0.38,-0.4,-0.405,-0.395,-0.395,-0.385,-0.375,-0.36,-0.35,-0.355,-0.37,-0.375,-0.37,-0.375,-0.375,-0.385,-0.385,-0.395,-0.4,-0.385,-0.4,-0.415,-0.43,-0.43,-0.42,-0.42,-0.41,-0.415,-0.415,-0.425,-0.42,-0.415,-0.41,-0.405,-0.415,-0.42,-0.415,-0.39,-0.39,-0.395,-0.41,-0.41,-0.4,-0.395,-0.395,-0.39,-0.41,-0.41,-0.4,-0.41,-0.415,-0.43,-0.44,-0.45,-0.465,-0.46,-0.47,-0.48,-0.5,-0.51,-0.505,-0.505,-0.525,-0.54,-0.555,-0.565,-0.565,-0.565,-0.59,-0.605,-0.63,-0.635,-0.63,-0.65,-0.66,-0.67,-0.685,-0.695,-0.69,-0.675,-0.685,-0.7,-0.71,-0.705,-0.705,-0.71,-0.705,-0.71,-0.725,-0.72,-0.72,-0.715,-0.72,-0.715,-0.72,-0.72,-0.715,-0.7,-0.705,-0.72,-0.705,-0.715,-0.7,-0.7,-0.695,-0.685,-0.69,-0.69,-0.68,-0.67,-0.665,-0.675,-0.695,-0.69,-0.69,-0.67,-0.675,-0.675,-0.675,-0.69,-0.67,-0.66,-0.655,-0.645,-0.665,-0.665,-0.66,-0.65,-0.64,-0.65,-0.645,-0.655,-0.645,-0.635,-0.635,-0.645,-0.64,-0.65,-0.645,-0.625,-0.62,-0.64,-0.64,-0.65,-0.635,-0.625,-0.615,-0.63,-0.635,-0.64,-0.63,-0.62,-0.615,-0.605,-0.625,-0.62,-0.625,-0.605,-0.61,-0.61,-0.61,-0.61,-0.595
1.0,107.0,0.495,0.52,0.53,0.54,0.575,0.58,0.615,0.635,0.645,0.64,0.645,0.645,0.65,0.655,0.645,0.62,0.61,0.605,0.595,0.575,0.555,0.515,0.5,0.475,0.455,0.42,0.37,0.32,0.29,0.255,0.22,0.175,0.14,0.09,0.035,0.0,-0.035,-0.07,-0.12,-0.165,-0.2,-0.215,-0.235,-0.275,-0.305,-0.355,-0.365,-0.385,-0.425,-0.435,-0.47,-0.495,-0.495,-0.5,-0.51,-0.525,-0.54,-0.56,-0.555,-0.565,-0.58,-0.6,-0.61,-0.645,-0.655,-0.67,-0.7,-0.74,-0.78,-0.835,-0.855,-0.86,-0.865,-0.88,-0.91,-0.945,-0.945,-0.9,-0.85,-0.785,-0.735,-0.715,-0.71,-0.745,-0.825,-0.965,-1.14,-1.285,-1.36,-1.385,-1.45,-1.52,-1.605,-1.675,-1.705,-1.675,-1.665,-1.67,-1.69,-1.7,-1.645,-1.54,-1.44,-1.355,-1.335,-1.4,-1.53,-1.695,-1.85,-1.995,-2.06,-2.085,-2.07,-2.055,-1.98,-1.86,-1.685,-1.495,-1.3,-1.115,-0.95,-0.815,-0.72,-0.69,-0.655,-0.625,-0.585,-0.565,-0.54,-0.525,-0.485,-0.46,-0.43,-0.415,-0.4,-0.42,-0.39,-0.36,-0.35,-0.33,-0.32,-0.31,-0.295,-0.255,-0.21,-0.21,-0.18,-0.17,-0.125,-0.085,-0.05,-0.015,0.025,0.03,0.085,0.135,0.155,0.18,0.21,0.225,0.215,0.205,0.18,0.15,0.145,0.14,0.16,0.17,0.185,0.18,0.17,0.155,0.155,0.145,0.145,0.13,0.11,0.085,0.055,0.065,0.065,0.05,0.02,-0.015,-0.03,-0.04,-0.05,-0.065,-0.08,-0.095,-0.095,-0.105,-0.11,-0.135,-0.165,-0.18,-0.19,-0.19,-0.19,-0.185,-0.205,-0.215,-0.23,-0.22,-0.235,-0.245,-0.25,-0.28,-0.285,-0.28,-0.285,-0.29,-0.31,-0.34,-0.345,-0.34,-0.345,-0.35,-0.365,-0.385,-0.375,-0.375,-0.365,-0.375,-0.39,-0.4,-0.395,-0.38,-0.375,-0.39,-0.395,-0.405,-0.415,-0.395,-0.39,-0.39,-0.41,-0.41,-0.405,-0.385,-0.38,-0.38,-0.395,-0.39,-0.39,-0.38,-0.38,-0.375,-0.38,-0.385,-0.37,-0.37,-0.35,-0.345,-0.35,-0.355,-0.355,-0.35,-0.335,-0.325,-0.34,-0.34,-0.345,-0.335,-0.315,-0.31,-0.32,-0.335,-0.325,-0.31,-0.3,-0.305,-0.305,-0.305,-0.315,-0.305,-0.285,-0.29,-0.29,-0.28,-0.295,-0.28,-0.275,-0.275,-0.28,-0.285,-0.275,-0.275,-0.27,-0.265,-0.265,-0.28,-0.275,-0.26,-0.245,-0.24,-0.24,-0.255,-0.26,-0.25
1.0,107.0,0.08,0.02,-0.005,-0.055,-0.11,-0.135,-0.17,-0.19,-0.23,-0.265,-0.29,-0.325,-0.34,-0.35,-0.365,-0.4,-0.415,-0.425,-0.43,-0.435,-0.445,-0.455,-0.475,-0.47,-0.475,-0.47,-0.48,-0.485,-0.495,-0.49,-0.5,-0.49,-0.505,-0.51,-0.515,-0.51,-0.51,-0.51,-0.5,-0.525,-0.525,-0.525,-0.515,-0.515,-0.525,-0.53,-0.535,-0.53,-0.53,-0.52,-0.515,-0.505,-0.52,-0.495,-0.47,-0.445,-0.435,-0.425,-0.425,-0.385,-0.35,-0.33,-0.31,-0.305,-0.305,-0.305,-0.305,-0.315,-0.33,-0.37,-0.44,-0.52,-0.58,-0.625,-0.665,-0.705,-0.73,-0.715,-0.655,-0.58,-0.505,-0.455,-0.48,-0.515,-0.625,-0.81,-1.045,-1.24,-1.365,-1.435,-1.5,-1.585,-1.665,-1.715,-1.72,-1.71,-1.71,-1.745,-1.81,-1.825,-1.79,-1.695,-1.62,-1.62,-1.715,-1.865,-2.04,-2.2,-2.32,-2.385,-2.39,-2.375,-2.375,-2.34,-2.265,-2.125,-1.945,-1.715,-1.505,-1.295,-1.115,-0.94,-0.825,-0.755,-0.735,-0.7,-0.68,-0.65,-0.615,-0.605,-0.585,-0.545,-0.505,-0.48,-0.47,-0.46,-0.465,-0.44,-0.42,-0.41,-0.41,-0.4,-0.395,-0.39,-0.365,-0.36,-0.345,-0.345,-0.34,-0.32,-0.3,-0.275,-0.28,-0.27,-0.275,-0.255,-0.23,-0.215,-0.195,-0.2,-0.205,-0.175,-0.17,-0.15,-0.135,-0.145,-0.135,-0.115,-0.1,-0.085,-0.085,-0.095,-0.08,-0.065,-0.05,-0.035,-0.035,-0.045,-0.05,-0.035,-0.015,-0.01,-0.025,-0.025,-0.025,-0.015,-0.02,-0.015,-0.025,-0.045,-0.06,-0.055,-0.07,-0.08,-0.1,-0.12,-0.13,-0.135,-0.13,-0.14,-0.16,-0.19,-0.22,-0.225,-0.235,-0.23,-0.26,-0.265,-0.285,-0.29,-0.305,-0.305,-0.32,-0.33,-0.34,-0.35,-0.35,-0.345,-0.355,-0.36,-0.38,-0.375,-0.38,-0.375,-0.385,-0.39,-0.385,-0.395,-0.375,-0.37,-0.385,-0.385,-0.405,-0.39,-0.38,-0.385,-0.38,-0.385,-0.395,-0.395,-0.385,-0.38,-0.385,-0.395,-0.405,-0.41,-0.38,-0.39,-0.385,-0.39,-0.405,-0.39,-0.38,-0.39,-0.385,-0.38,-0.38,-0.385,-0.38,-0.375,-0.38,-0.385,-0.395,-0.385,-0.375,-0.38,-0.375,-0.385,-0.395,-0.385,-0.385,-0.37,-0.375,-0.39,-0.39,-0.39,-0.375,-0.37,-0.375,-0.385,-0.385,-0.38,-0.375,-0.37,-0.36,-0.365,-0.395,-0.37,-0.38,-0.365,-0.365,-0.37,-0.38,-0.38,-0.355,-0.36,-0.365,-0.365,-0.36,-0.355
1.0,107.0,0.8,0.785,0.77,0.755,0.735,0.7,0.675,0.64,0.61,0.575,0.54,0.495,0.45,0.415,0.375,0.35,0.3,0.245,0.2,0.165,0.13,0.095,0.05,0.005,-0.04,-0.075,-0.105,-0.12,-0.18,-0.21,-0.265,-0.285,-0.31,-0.32,-0.35,-0.38,-0.405,-0.415,-0.425,-0.445,-0.455,-0.47,-0.485,-0.495,-0.49,-0.495,-0.505,-0.515,-0.535,-0.525,-0.525,-0.52,-0.525,-0.54,-0.55,-0.54,-0.54,-0.535,-0.545,-0.555,-0.56,-0.56,-0.57,-0.565,-0.58,-0.59,-0.61,-0.64,-0.67,-0.695,-0.735,-0.79,-0.825,-0.87,-0.875,-0.885,-0.92,-0.955,-0.975,-0.955,-0.875,-0.785,-0.71,-0.695,-0.715,-0.805,-0.95,-1.155,-1.35,-1.48,-1.555,-1.605,-1.665,-1.72,-1.76,-1.75,-1.725,-1.715,-1.725,-1.74,-1.725,-1.665,-1.55,-1.435,-1.4,-1.475,-1.655,-1.87,-2.085,-2.245,-2.325,-2.315,-2.3,-2.255,-2.175,-2.03,-1.84,-1.625,-1.425,-1.27,-1.105,-0.925,-0.765,-0.675,-0.64,-0.625,-0.595,-0.57,-0.54,-0.51,-0.48,-0.46,-0.44,-0.415,-0.395,-0.39,-0.375,-0.365,-0.36,-0.345,-0.335,-0.31,-0.305,-0.3,-0.305,-0.285,-0.27,-0.265,-0.26,-0.26,-0.26,-0.24,-0.21,-0.205,-0.2,-0.215,-0.215,-0.195,-0.175,-0.165,-0.155,-0.15,-0.13,-0.125,-0.115,-0.11,-0.105,-0.11,-0.105,-0.105,-0.08,-0.075,-0.085,-0.09,-0.09,-0.08,-0.065,-0.055,-0.07,-0.065,-0.075,-0.075,-0.07,-0.06,-0.06,-0.075,-0.09,-0.085,-0.08,-0.08,-0.08,-0.105,-0.12,-0.11,-0.12,-0.125,-0.13,-0.14,-0.155,-0.16,-0.145,-0.14,-0.14,-0.14,-0.135,-0.12,-0.11,-0.09,-0.085,-0.075,-0.07,-0.045,-0.01,0.01,0.01,0.015,0.01,0.03,0.045,0.055,0.025,-0.025,-0.09,-0.11,-0.13,-0.135,-0.14,-0.145,-0.165,-0.15,-0.16,-0.16,-0.185,-0.23,-0.25,-0.265,-0.28,-0.3,-0.315,-0.34,-0.365,-0.385,-0.395,-0.425,-0.44,-0.47,-0.485,-0.495,-0.495,-0.49,-0.51,-0.52,-0.53,-0.535,-0.535,-0.545,-0.545,-0.555,-0.555,-0.56,-0.545,-0.545,-0.55,-0.56,-0.575,-0.56,-0.565,-0.56,-0.57,-0.585,-0.595,-0.59,-0.575,-0.57,-0.595,-0.595,-0.605,-0.595,-0.59,-0.58,-0.595,-0.605,-0.615,-0.59,-0.585,-0.585,-0.6,-0.6,-0.615,-0.605,-0.61,-0.6,-0.595,-0.595,-0.615,-0.6,-0.6,-0.595,-0.6,-0.595
1.0,107.0,-0.37,-0.33,-0.3,-0.275,-0.265,-0.245,-0.205,-0.185,-0.15,-0.14,-0.11,-0.095,-0.08,-0.055,-0.035,-0.03,-0.015,-0.005,0.01,0.015,0.02,0.02,0.015,-0.005,-0.005,-0.005,-0.01,-0.035,-0.055,-0.085,-0.1,-0.12,-0.135,-0.16,-0.19,-0.23,-0.25,-0.275,-0.32,-0.35,-0.4,-0.44,-0.475,-0.495,-0.53,-0.56,-0.595,-0.615,-0.64,-0.67,-0.69,-0.72,-0.75,-0.78,-0.78,-0.795,-0.79,-0.815,-0.84,-0.855,-0.85,-0.855,-0.86,-0.875,-0.885,-0.905,-0.915,-0.93,-0.955,-0.985,-1.02,-1.06,-1.09,-1.105,-1.105,-1.13,-1.15,-1.17,-1.16,-1.125,-1.07,-1.025,-0.975,-0.97,-0.97,-1.02,-1.125,-1.24,-1.34,-1.39,-1.415,-1.455,-1.505,-1.535,-1.575,-1.575,-1.56,-1.565,-1.58,-1.57,-1.525,-1.445,-1.355,-1.285,-1.29,-1.37,-1.485,-1.64,-1.74,-1.795,-1.83,-1.85,-1.87,-1.84,-1.765,-1.63,-1.465,-1.32,-1.185,-1.05,-0.915,-0.835,-0.81,-0.8,-0.795,-0.79,-0.76,-0.75,-0.735,-0.72,-0.73,-0.73,-0.72,-0.725,-0.72,-0.74,-0.745,-0.76,-0.75,-0.75,-0.735,-0.725,-0.72,-0.725,-0.725,-0.72,-0.72,-0.7,-0.72,-0.705,-0.695,-0.69,-0.67,-0.665,-0.675,-0.675,-0.655,-0.65,-0.625,-0.635,-0.63,-0.625,-0.61,-0.595,-0.585,-0.59,-0.59,-0.59,-0.585,-0.565,-0.56,-0.555,-0.565,-0.57,-0.555,-0.545,-0.54,-0.56,-0.56,-0.57,-0.56,-0.555,-0.545,-0.545,-0.555,-0.56,-0.55,-0.56,-0.555,-0.55,-0.565,-0.575,-0.57,-0.555,-0.545,-0.55,-0.555,-0.57,-0.56,-0.54,-0.555,-0.57,-0.595,-0.6,-0.59,-0.59,-0.585,-0.59,-0.6,-0.62,-0.61,-0.615,-0.61,-0.6,-0.61,-0.625,-0.62,-0.61,-0.6,-0.6,-0.6,-0.615,-0.6,-0.595,-0.595,-0.59,-0.585,-0.585,-0.57,-0.55,-0.55,-0.565,-0.57,-0.595,-0.605,-0.59,-0.585,-0.57,-0.565,-0.57,-0.555,-0.54,-0.535,-0.54,-0.555,-0.55,-0.54,-0.535,-0.525,-0.525,-0.53,-0.54,-0.545,-0.53,-0.53,-0.535,-0.53,-0.53,-0.535,-0.525,-0.5,-0.515,-0.505,-0.515,-0.515,-0.505,-0.505,-0.515,-0.52,-0.51,-0.505,-0.49,-0.485,-0.51,-0.51,-0.53,-0.495,-0.48,-0.475,-0.48,-0.485,-0.485,-0.48,-0.475,-0.48,-0.475,-0.465,-0.465,-0.465,-0.48,-0.48,-0.49,-0.48,-0.475,-0.465,-0.465,-0.445,-0.455,-0.45,-0.45
1.0,107.0,1.675,1.65,1.655,1.655,1.645,1.615,1.585,1.535,1.51,1.47,1.405,1.355,1.295,1.235,1.175,1.135,1.08,1.005,0.94,0.86,0.79,0.73,0.665,0.575,0.485,0.41,0.355,0.305,0.26,0.215,0.155,0.11,0.08,0.065,0.03,-0.005,-0.03,-0.07,-0.09,-0.115,-0.125,-0.155,-0.18,-0.2,-0.205,-0.2,-0.2,-0.215,-0.265,-0.28,-0.28,-0.27,-0.275,-0.28,-0.295,-0.295,-0.305,-0.29,-0.295,-0.305,-0.305,-0.315,-0.305,-0.335,-0.35,-0.355,-0.375,-0.385,-0.405,-0.445,-0.505,-0.565,-0.615,-0.67,-0.7,-0.72,-0.75,-0.78,-0.82,-0.835,-0.77,-0.685,-0.575,-0.52,-0.53,-0.63,-0.79,-1.015,-1.27,-1.49,-1.6,-1.675,-1.73,-1.8,-1.88,-1.925,-1.905,-1.88,-1.86,-1.86,-1.86,-1.8,-1.66,-1.515,-1.43,-1.45,-1.585,-1.78,-1.98,-2.145,-2.22,-2.205,-2.19,-2.18,-2.135,-2.02,-1.795,-1.48,-1.145,-0.87,-0.64,-0.44,-0.295,-0.225,-0.19,-0.17,-0.155,-0.155,-0.11,-0.07,-0.03,0.005,0.04,0.05,0.07,0.095,0.11,0.11,0.115,0.125,0.145,0.165,0.165,0.175,0.18,0.18,0.21,0.215,0.23,0.25,0.24,0.25,0.265,0.285,0.295,0.315,0.315,0.31,0.325,0.34,0.35,0.35,0.345,0.33,0.345,0.355,0.365,0.37,0.38,0.37,0.38,0.37,0.375,0.375,0.38,0.395,0.395,0.385,0.365,0.355,0.36,0.35,0.36,0.36,0.35,0.34,0.33,0.305,0.3,0.29,0.275,0.245,0.21,0.205,0.19,0.185,0.165,0.16,0.135,0.12,0.105,0.115,0.095,0.055,0.03,0.02,0.005,0.005,0.0,-0.01,-0.025,-0.045,-0.035,-0.025,-0.035,-0.045,-0.07,-0.075,-0.065,-0.055,-0.055,-0.055,-0.07,-0.075,-0.08,-0.075,-0.08,-0.085,-0.08,-0.075,-0.07,-0.045,-0.05,-0.055,-0.055,-0.04,-0.015,0.005,0.03,0.04,0.045,0.07,0.095,0.135,0.155,0.175,0.19,0.185,0.23,0.27,0.29,0.305,0.3,0.285,0.255,0.24,0.215,0.195,0.2,0.2,0.22,0.215,0.21,0.2,0.16,0.14,0.125,0.1,0.105,0.08,0.065,0.04,0.02,0.005,-0.015,-0.005,-0.035,-0.045,-0.05,-0.045,-0.05,-0.07,-0.09,-0.105,-0.095,-0.09,-0.105,-0.11,-0.095,-0.1,-0.115,-0.115,-0.14,-0.15,-0.16,-0.145,-0.13,-0.115,-0.11,-0.115
