0.0,212.0,0.065,0.06,0.055,0.025,0.02,0.05,0.075,0.09,0.06,0.045,0.02,0.015,0.03,0.045,0.045,0.055,0.05,0.035,0.04,0.05,0.03,0.035,0.02,0.015,0.03,0.05,0.045,0.04,0.025,0.015,0.03,0.05,0.05,0.045,0.04,0.035,0.05,0.06,0.035,0.005,-0.015,-0.005,0.025,0.04,0.05,0.05,0.045,0.05,0.08,0.12,0.145,0.16,0.175,0.205,0.235,0.245,0.225,0.225,0.265,0.335,0.405,0.44,0.425,0.395,0.39,0.4,0.425,0.44,0.405,0.37,0.335,0.3,0.265,0.25,0.22,0.2,0.175,0.17,0.18,0.18,0.14,0.11,0.085,0.095,0.1,0.11,0.11,0.095,0.09,0.085,0.105,0.125,0.13,0.11,0.105,0.11,0.115,0.11,0.115,0.11,0.115,0.125,0.155,0.18,0.205,0.25,0.355,0.505,0.71,0.95,1.195,1.445,1.665,1.795,1.74,1.475,1.05,0.61,0.28,0.115,0.08,0.09,0.07,0.065,0.085,0.115,0.145,0.165,0.18,0.145,0.13,0.115,0.1,0.11,0.115,0.125,0.11,0.11,0.13,0.145,0.135,0.115,0.11,0.115,0.13,0.165,0.16,0.155,0.14,0.14,0.16,0.17,0.17,0.175,0.15,0.17,0.185,0.215,0.205,0.19,0.18,0.17,0.175,0.205,0.21,0.22,0.2,0.22,0.23,0.23,0.225,0.23,0.225,0.23,0.24,0.27,0.285,0.275,0.27,0.27,0.29,0.305,0.315,0.285,0.295,0.315,0.33,0.345,0.365,0.34,0.345,0.355,0.36,0.375,0.38,0.39,0.37,0.36,0.37,0.39,0.385,0.36,0.355,0.35,0.355,0.375,0.35,0.33,0.29,0.29,0.285,0.295,0.27,0.265,0.235,0.225,0.215,0.21,0.2,0.16,0.135,0.14,0.15,0.17,0.16,0.135,0.12,0.115,0.125,0.12,0.12,0.105,0.095,0.105,0.12,0.135,0.125,0.125,0.105,0.095,0.115,0.12,0.1,0.115,0.125,0.1,0.105,0.11,0.12,0.105,0.105,0.115,0.135,0.16,0.145,0.12,0.09,0.065,0.09,0.125,0.135,0.125,0.105,0.08,0.075,0.09,0.07,0.055,0.05,0.05,0.07,0.095,0.095,0.07,0.045,0.055,0.05,0.07,0.065,0.06,0.045,0.04,0.045,0.065,0.045,0.05,0.025,0.03,0.035,0.035,0.045,0.015,0.015,0.01,0.02,0.025,0.03,0.02,0.005,0.005
0.0,212.0,0.075,0.09,0.07,0.055,0.05,0.05,0.07,0.095,0.095,0.07,0.045,0.055,0.05,0.07,0.065,0.06,0.045,0.04,0.045,0.065,0.045,0.05,0.025,0.03,0.035,0.035,0.045,0.015,0.015,0.01,0.02,0.025,0.03,0.02,0.005,0.005,0.01,0.025,0.03,0.01,-0.01,-0.025,-0.01,0.02,0.03,0.035,0.03,0.03,0.065,0.095,0.1,0.09,0.1,0.105,0.14,0.16,0.19,0.185,0.185,0.205,0.24,0.275,0.27,0.26,0.25,0.22,0.215,0.22,0.19,0.155,0.115,0.055,0.04,0.03,0.02,-0.015,-0.045,-0.065,-0.07,-0.06,-0.075,-0.08,-0.09,-0.09,-0.095,-0.1,-0.115,-0.125,-0.15,-0.15,-0.12,-0.115,-0.1,-0.13,-0.14,-0.14,-0.14,-0.105,-0.12,-0.115,-0.115,-0.105,-0.095,-0.04,-0.01,0.03,0.115,0.275,0.495,0.78,1.05,1.33,1.55,1.665,1.61,1.33,0.87,0.41,0.075,-0.09,-0.13,-0.12,-0.12,-0.135,-0.11,-0.095,-0.09,-0.085,-0.09,-0.095,-0.095,-0.09,-0.095,-0.095,-0.09,-0.105,-0.11,-0.115,-0.1,-0.07,-0.07,-0.08,-0.07,-0.075,-0.065,-0.065,-0.06,-0.06,-0.055,-0.06,-0.045,-0.03,-0.03,-0.06,-0.065,-0.05,-0.04,-0.03,-0.035,-0.04,-0.04,-0.035,-0.015,-0.01,-0.015,-0.03,-0.055,-0.04,-0.01,0.02,0.025,0.0,-0.02,-0.015,-0.02,0.005,0.015,0.025,0.025,0.03,0.04,0.055,0.045,0.035,0.035,0.05,0.075,0.09,0.09,0.09,0.095,0.095,0.115,0.13,0.115,0.1,0.09,0.09,0.125,0.135,0.12,0.095,0.085,0.085,0.075,0.095,0.08,0.06,0.055,0.045,0.055,0.035,0.01,-0.02,-0.05,-0.055,-0.075,-0.065,-0.075,-0.08,-0.115,-0.14,-0.13,-0.125,-0.14,-0.15,-0.15,-0.16,-0.15,-0.145,-0.165,-0.195,-0.21,-0.2,-0.185,-0.155,-0.155,-0.175,-0.17,-0.18,-0.175,-0.16,-0.17,-0.21,-0.195,-0.18,-0.175,-0.14,-0.15,-0.165,-0.17,-0.18,-0.175,-0.17,-0.165,-0.165,-0.165,-0.165,-0.155,-0.15,-0.155,-0.175,-0.195,-0.175,-0.15,-0.135,-0.135,-0.15,-0.17,-0.19,-0.175,-0.16,-0.16,-0.165,-0.175,-0.17,-0.15,-0.13,-0.145,-0.185,-0.205,-0.2,-0.185,-0.17,-0.16,-0.185,-0.205,-0.2,-0.195,-0.19,-0.19,-0.2,-0.195,-0.185,-0.17,-0.145,-0.145,-0.13,-0.14,-0.12
0.0,212.0,-0.18,-0.175,-0.17,-0.165,-0.165,-0.165,-0.165,-0.155,-0.15,-0.155,-0.175,-0.195,-0.175,-0.15,-0.135,-0.135,-0.15,-0.17,-0.19,-0.175,-0.16,-0.16,-0.165,-0.175,-0.17,-0.15,-0.13,-0.145,-0.185,-0.205,-0.2,-0.185,-0.17,-0.16,-0.185,-0.205,-0.2,-0.195,-0.19,-0.19,-0.2,-0.195,-0.185,-0.17,-0.145,-0.145,-0.13,-0.14,-0.12,-0.1,-0.08,-0.08,-0.085,-0.075,-0.06,-0.02,0.005,0.01,0.02,0.02,0.025,0.04,0.055,0.06,0.045,0.01,0.0,-0.03,-0.045,-0.065,-0.115,-0.165,-0.19,-0.205,-0.19,-0.205,-0.23,-0.255,-0.275,-0.275,-0.26,-0.265,-0.27,-0.29,-0.285,-0.285,-0.27,-0.29,-0.305,-0.325,-0.33,-0.315,-0.29,-0.285,-0.295,-0.295,-0.295,-0.285,-0.265,-0.265,-0.265,-0.25,-0.235,-0.205,-0.175,-0.13,-0.085,0.065,0.265,0.545,0.855,1.15,1.39,1.535,1.535,1.345,0.97,0.5,0.085,-0.165,-0.25,-0.235,-0.235,-0.265,-0.295,-0.3,-0.26,-0.225,-0.21,-0.22,-0.225,-0.225,-0.225,-0.22,-0.19,-0.21,-0.215,-0.22,-0.21,-0.19,-0.175,-0.16,-0.19,-0.19,-0.2,-0.185,-0.155,-0.15,-0.16,-0.15,-0.135,-0.1,-0.085,-0.105,-0.11,-0.11,-0.115,-0.08,-0.055,-0.05,-0.06,-0.075,-0.06,-0.055,-0.045,-0.05,-0.055,-0.06,-0.045,-0.015,0.015,0.005,0.0,-0.015,-0.005,0.0,0.035,0.035,0.045,0.05,0.06,0.08,0.08,0.09,0.08,0.07,0.09,0.11,0.145,0.135,0.145,0.14,0.13,0.14,0.16,0.155,0.145,0.15,0.155,0.17,0.175,0.16,0.135,0.115,0.095,0.11,0.12,0.115,0.11,0.065,0.06,0.035,0.02,0.0,-0.01,-0.02,-0.02,-0.015,-0.02,-0.025,-0.05,-0.08,-0.085,-0.075,-0.055,-0.06,-0.08,-0.095,-0.095,-0.095,-0.08,-0.095,-0.095,-0.095,-0.105,-0.08,-0.065,-0.06,-0.08,-0.1,-0.095,-0.09,-0.065,-0.05,-0.065,-0.06,-0.055,-0.06,-0.04,-0.04,-0.05,-0.055,-0.05,-0.045,-0.025,-0.035,-0.035,-0.055,-0.045,-0.03,-0.01,-0.02,-0.025,-0.04,-0.04,-0.03,-0.01,-0.02,-0.04,-0.05,-0.04,-0.025,-0.005,-0.01,-0.03,-0.05,-0.055,-0.035,-0.025,-0.03,-0.04,-0.045,-0.025,-0.025,-0.01,-0.02,-0.04,-0.065,-0.05,-0.045,0.0,0.01,0.02,0.03,0.055,0.07,0.08,0.1,0.1,0.11
0.0,212.0,-0.06,-0.055,-0.06,-0.04,-0.04,-0.05,-0.055,-0.05,-0.045,-0.025,-0.035,-0.035,-0.055,-0.045,-0.03,-0.01,-0.02,-0.025,-0.04,-0.04,-0.03,-0.01,-0.02,-0.04,-0.05,-0.04,-0.025,-0.005,-0.01,-0.03,-0.05,-0.055,-0.035,-0.025,-0.03,-0.04,-0.045,-0.025,-0.025,-0.01,-0.02,-0.04,-0.065,-0.05,-0.045,0.0,0.01,0.02,0.03,0.055,0.07,0.08,0.1,0.1,0.11,0.13,0.16,0.205,0.215,0.23,0.225,0.225,0.245,0.26,0.265,0.255,0.225,0.21,0.2,0.165,0.135,0.075,0.03,0.025,0.015,0.04,-0.005,-0.035,-0.045,-0.06,-0.055,-0.04,-0.05,-0.06,-0.08,-0.08,-0.065,-0.075,-0.075,-0.09,-0.1,-0.09,-0.07,-0.065,-0.06,-0.08,-0.08,-0.09,-0.07,-0.055,-0.045,-0.04,-0.035,-0.005,0.04,0.12,0.22,0.36,0.555,0.84,1.18,1.5,1.765,1.905,1.9,1.725,1.375,0.945,0.495,0.105,-0.125,-0.18,-0.11,-0.02,-0.005,-0.015,-0.05,-0.05,-0.055,-0.055,-0.055,-0.065,-0.075,-0.08,-0.075,-0.065,-0.085,-0.09,-0.12,-0.105,-0.08,-0.06,-0.05,-0.075,-0.075,-0.07,-0.08,-0.055,-0.045,-0.05,-0.055,-0.05,-0.04,-0.04,-0.045,-0.055,-0.07,-0.055,-0.03,0.0,-0.005,-0.015,-0.015,-0.03,-0.03,-0.01,-0.01,-0.01,-0.01,-0.005,0.01,0.035,0.03,0.015,0.005,0.01,0.035,0.06,0.06,0.06,0.055,0.065,0.07,0.085,0.08,0.085,0.09,0.11,0.125,0.15,0.155,0.13,0.12,0.125,0.145,0.17,0.155,0.17,0.16,0.15,0.155,0.155,0.155,0.14,0.115,0.105,0.105,0.09,0.08,0.03,0.01,-0.01,-0.025,-0.02,-0.035,-0.05,-0.075,-0.085,-0.075,-0.065,-0.095,-0.12,-0.13,-0.13,-0.12,-0.115,-0.115,-0.135,-0.165,-0.15,-0.14,-0.125,-0.125,-0.155,-0.145,-0.145,-0.13,-0.13,-0.125,-0.145,-0.16,-0.14,-0.13,-0.105,-0.115,-0.12,-0.12,-0.13,-0.13,-0.105,-0.115,-0.115,-0.11,-0.115,-0.1,-0.075,-0.1,-0.11,-0.12,-0.125,-0.095,-0.07,-0.065,-0.075,-0.095,-0.11,-0.095,-0.09,-0.08,-0.09,-0.105,-0.09,-0.09,-0.07,-0.08,-0.105,-0.11,-0.105,-0.08,-0.065,-0.07,-0.09,-0.105,-0.115,-0.09,-0.08,-0.08,-0.08,-0.095,-0.08,-0.085,-0.075,-0.08,-0.1,-0.105,-0.115,-0.085,-0.065,-0.06,-0.06
0.0,212.0,-0.115,-0.115,-0.11,-0.115,-0.1,-0.075,-0.1,-0.11,-0.12,-0.125,-0.095,-0.07,-0.065,-0.075,-0.095,-0.11,-0.095,-0.09,-0.08,-0.09,-0.105,-0.09,-0.09,-0.07,-0.08,-0.105,-0.11,-0.105,-0.08,-0.065,-0.07,-0.09,-0.105,-0.115,-0.09,-0.08,-0.08,-0.08,-0.095,-0.08,-0.085,-0.075,-0.08,-0.1,-0.105,-0.115,-0.085,-0.065,-0.06,-0.06,-0.06,-0.04,-0.01,0.03,0.03,0.04,0.055,0.075,0.1,0.12,0.15,0.15,0.145,0.15,0.17,0.185,0.2,0.185,0.175,0.165,0.155,0.145,0.08,0.04,-0.015,-0.015,-0.025,-0.035,-0.065,-0.08,-0.105,-0.115,-0.105,-0.1,-0.115,-0.125,-0.145,-0.16,-0.145,-0.15,-0.14,-0.15,-0.15,-0.15,-0.14,-0.125,-0.13,-0.145,-0.16,-0.13,-0.12,-0.085,-0.07,-0.055,-0.04,0.03,0.18,0.38,0.62,0.92,1.235,1.545,1.755,1.82,1.63,1.215,0.695,0.215,-0.09,-0.19,-0.175,-0.11,-0.065,-0.065,-0.065,-0.07,-0.085,-0.085,-0.105,-0.11,-0.125,-0.11,-0.11,-0.135,-0.125,-0.115,-0.09,-0.075,-0.08,-0.095,-0.1,-0.1,-0.085,-0.09,-0.065,-0.06,-0.07,-0.075,-0.05,-0.04,-0.045,-0.09,-0.075,-0.065,-0.04,-0.02,-0.025,-0.03,-0.05,-0.055,-0.04,-0.015,-0.03,-0.03,-0.025,-0.025,-0.005,0.02,0.005,0.0,0.0,0.025,0.04,0.055,0.06,0.045,0.04,0.05,0.075,0.11,0.125,0.115,0.115,0.115,0.135,0.155,0.15,0.125,0.125,0.15,0.15,0.17,0.165,0.145,0.135,0.13,0.155,0.14,0.145,0.12,0.09,0.055,0.045,0.045,0.02,-0.015,-0.045,-0.03,-0.035,-0.03,-0.06,-0.085,-0.11,-0.115,-0.105,-0.085,-0.08,-0.11,-0.13,-0.13,-0.135,-0.125,-0.115,-0.125,-0.135,-0.115,-0.115,-0.105,-0.13,-0.155,-0.15,-0.145,-0.135,-0.11,-0.11,-0.13,-0.13,-0.135,-0.125,-0.095,-0.1,-0.095,-0.11,-0.11,-0.095,-0.1,-0.095,-0.115,-0.125,-0.13,-0.11,-0.085,-0.1,-0.1,-0.115,-0.12,-0.11,-0.105,-0.1,-0.1,-0.105,-0.11,-0.11,-0.105,-0.1,-0.115,-0.135,-0.13,-0.105,-0.095,-0.1,-0.14,-0.155,-0.16,-0.135,-0.12,-0.12,-0.125,-0.13,-0.14,-0.125,-0.12,-0.135,-0.15,-0.155,-0.135,-0.13,-0.11,-0.105,-0.14,-0.14,-0.15,-0.11,-0.085,-0.05,-0.02,-0.025,-0.01,0.0,0.02
0.0,212.0,-0.11,-0.11,-0.095,-0.1,-0.095,-0.115,-0.125,-0.13,-0.11,-0.085,-0.1,-0.1,-0.115,-0.12,-0.11,-0.105,-0.1,-0.1,-0.105,-0.11,-0.11,-0.105,-0.1,-0.115,-0.135,-0.13,-0.105,-0.095,-0.1,-0.14,-0.155,-0.16,-0.135,-0.12,-0.12,-0.125,-0.13,-0.14,-0.125,-0.12,-0.135,-0.15,-0.155,-0.135,-0.13,-0.11,-0.105,-0.14,-0.14,-0.15,-0.11,-0.085,-0.05,-0.02,-0.025,-0.01,0.0,0.02,0.015,0.02,0.035,0.075,0.125,0.15,0.145,0.14,0.115,0.115,0.12,0.12,0.11,0.075,0.035,-0.005,-0.045,-0.08,-0.095,-0.125,-0.135,-0.16,-0.15,-0.145,-0.165,-0.19,-0.205,-0.225,-0.215,-0.19,-0.2,-0.205,-0.215,-0.23,-0.225,-0.21,-0.215,-0.225,-0.22,-0.205,-0.19,-0.16,-0.185,-0.185,-0.185,-0.165,-0.115,-0.03,0.07,0.215,0.435,0.7,1.015,1.345,1.595,1.71,1.585,1.21,0.725,0.29,-0.05,-0.245,-0.28,-0.24,-0.17,-0.12,-0.105,-0.115,-0.15,-0.155,-0.16,-0.17,-0.17,-0.19,-0.175,-0.165,-0.145,-0.145,-0.135,-0.16,-0.165,-0.165,-0.135,-0.12,-0.12,-0.135,-0.14,-0.13,-0.105,-0.105,-0.085,-0.1,-0.11,-0.09,-0.065,-0.06,-0.065,-0.085,-0.09,-0.08,-0.065,-0.035,-0.045,-0.05,-0.06,-0.075,-0.055,-0.035,-0.035,-0.025,-0.035,-0.015,-0.005,0.01,0.015,0.0,0.0,0.02,0.04,0.055,0.075,0.065,0.06,0.065,0.07,0.1,0.11,0.1,0.095,0.105,0.115,0.13,0.125,0.125,0.11,0.095,0.125,0.14,0.14,0.105,0.08,0.08,0.08,0.075,0.06,0.04,0.015,0.005,-0.005,-0.005,-0.03,-0.06,-0.09,-0.1,-0.095,-0.085,-0.105,-0.11,-0.14,-0.16,-0.155,-0.125,-0.12,-0.135,-0.145,-0.15,-0.145,-0.145,-0.15,-0.17,-0.175,-0.16,-0.165,-0.14,-0.12,-0.135,-0.15,-0.165,-0.145,-0.12,-0.125,-0.13,-0.125,-0.135,-0.12,-0.11,-0.115,-0.125,-0.13,-0.13,-0.105,-0.09,-0.095,-0.1,-0.115,-0.115,-0.105,-0.085,-0.095,-0.11,-0.115,-0.115,-0.11,-0.1,-0.11,-0.125,-0.14,-0.125,-0.125,-0.11,-0.115,-0.13,-0.155,-0.16,-0.14,-0.12,-0.125,-0.13,-0.145,-0.13,-0.125,-0.12,-0.13,-0.145,-0.13,-0.14,-0.12,-0.12,-0.105,-0.135,-0.15,-0.15,-0.12,-0.1,-0.07,-0.035,-0.025,-0.02,0.005,0.02,0.015,0.025
0.0,212.0,-0.12,-0.11,-0.115,-0.125,-0.13,-0.13,-0.105,-0.09,-0.095,-0.1,-0.115,-0.115,-0.105,-0.085,-0.095,-0.11,-0.115,-0.115,-0.11,-0.1,-0.11,-0.125,-0.14,-0.125,-0.125,-0.11,-0.115,-0.13,-0.155,-0.16,-0.14,-0.12,-0.125,-0.13,-0.145,-0.13,-0.125,-0.12,-0.13,-0.145,-0.13,-0.14,-0.12,-0.12,-0.105,-0.135,-0.15,-0.15,-0.12,-0.1,-0.07,-0.035,-0.025,-0.02,0.005,0.02,0.015,0.025,0.045,0.07,0.12,0.155,0.165,0.155,0.135,0.125,0.15,0.155,0.145,0.12,0.105,0.07,0.03,-0.015,-0.065,-0.1,-0.12,-0.14,-0.11,-0.11,-0.125,-0.165,-0.175,-0.2,-0.18,-0.18,-0.19,-0.205,-0.215,-0.22,-0.215,-0.22,-0.22,-0.23,-0.235,-0.225,-0.19,-0.17,-0.17,-0.195,-0.21,-0.21,-0.195,-0.15,-0.12,-0.08,0.005,0.12,0.315,0.57,0.84,1.105,1.35,1.55,1.58,1.355,0.9,0.365,-0.055,-0.255,-0.325,-0.275,-0.25,-0.245,-0.225,-0.22,-0.215,-0.21,-0.23,-0.265,-0.27,-0.265,-0.255,-0.235,-0.23,-0.24,-0.26,-0.265,-0.255,-0.235,-0.235,-0.23,-0.245,-0.23,-0.215,-0.215,-0.215,-0.225,-0.23,-0.22,-0.2,-0.18,-0.175,-0.215,-0.215,-0.195,-0.19,-0.17,-0.18,-0.18,-0.175,-0.16,-0.17,-0.15,-0.155,-0.155,-0.165,-0.16,-0.135,-0.12,-0.11,-0.12,-0.13,-0.145,-0.11,-0.085,-0.085,-0.075,-0.085,-0.07,-0.06,-0.045,-0.05,-0.06,-0.055,-0.04,-0.005,0.01,0.005,-0.005,-0.02,-0.025,-0.015,0.0,0.005,-0.005,-0.01,-0.005,-0.015,-0.005,-0.03,-0.055,-0.075,-0.105,-0.09,-0.08,-0.11,-0.14,-0.16,-0.17,-0.185,-0.17,-0.185,-0.21,-0.23,-0.225,-0.22,-0.235,-0.24,-0.26,-0.275,-0.295,-0.265,-0.25,-0.24,-0.255,-0.265,-0.27,-0.26,-0.25,-0.26,-0.27,-0.275,-0.27,-0.245,-0.245,-0.25,-0.255,-0.265,-0.265,-0.245,-0.225,-0.21,-0.23,-0.245,-0.25,-0.24,-0.24,-0.23,-0.23,-0.24,-0.235,-0.205,-0.19,-0.21,-0.245,-0.26,-0.24,-0.22,-0.205,-0.2,-0.21,-0.225,-0.23,-0.215,-0.21,-0.205,-0.21,-0.225,-0.23,-0.22,-0.2,-0.225,-0.24,-0.255,-0.255,-0.245,-0.21,-0.22,-0.23,-0.245,-0.26,-0.245,-0.23,-0.205,-0.195,-0.185,-0.16,-0.13,-0.12,-0.125,-0.125,-0.12,-0.095,-0.055,-0.01,0.015,0.02,0.0,-0.01
0.0,212.0,-0.245,-0.245,-0.25,-0.255,-0.265,-0.265,-0.245,-0.225,-0.21,-0.23,-0.245,-0.25,-0.24,-0.24,-0.23,-0.23,-0.24,-0.235,-0.205,-0.19,-0.21,-0.245,-0.26,-0.24,-0.22,-0.205,-0.2,-0.21,-0.225,-0.23,-0.215,-0.21,-0.205,-0.21,-0.225,-0.23,-0.22,-0.2,-0.225,-0.24,-0.255,-0.255,-0.245,-0.21,-0.22,-0.23,-0.245,-0.26,-0.245,-0.23,-0.205,-0.195,-0.185,-0.16,-0.13,-0.12,-0.125,-0.125,-0.12,-0.095,-0.055,-0.01,0.015,0.02,0.0,-0.01,0.0,0.005,0.0,-0.02,-0.035,-0.07,-0.08,-0.125,-0.175,-0.22,-0.255,-0.27,-0.26,-0.25,-0.275,-0.305,-0.32,-0.335,-0.335,-0.32,-0.325,-0.325,-0.35,-0.35,-0.33,-0.325,-0.34,-0.35,-0.36,-0.37,-0.325,-0.31,-0.295,-0.31,-0.32,-0.335,-0.3,-0.265,-0.24,-0.195,-0.11,0.02,0.24,0.535,0.835,1.14,1.4,1.495,1.365,0.99,0.47,0.01,-0.27,-0.36,-0.345,-0.33,-0.34,-0.32,-0.325,-0.315,-0.3,-0.295,-0.3,-0.31,-0.325,-0.32,-0.305,-0.28,-0.285,-0.295,-0.305,-0.295,-0.29,-0.275,-0.26,-0.255,-0.27,-0.275,-0.27,-0.255,-0.26,-0.265,-0.265,-0.265,-0.24,-0.21,-0.225,-0.245,-0.25,-0.25,-0.235,-0.21,-0.2,-0.195,-0.195,-0.205,-0.19,-0.17,-0.185,-0.175,-0.18,-0.17,-0.135,-0.125,-0.13,-0.14,-0.135,-0.13,-0.11,-0.08,-0.07,-0.075,-0.09,-0.075,-0.065,-0.04,-0.035,-0.05,-0.045,-0.02,-0.005,0.015,0.005,0.0,-0.02,-0.02,0.005,0.02,0.035,0.02,-0.015,-0.03,-0.025,-0.03,-0.045,-0.07,-0.09,-0.1,-0.1,-0.11,-0.13,-0.17,-0.19,-0.19,-0.2,-0.165,-0.175,-0.195,-0.205,-0.225,-0.225,-0.22,-0.21,-0.22,-0.225,-0.225,-0.225,-0.21,-0.21,-0.255,-0.265,-0.25,-0.23,-0.205,-0.2,-0.2,-0.225,-0.225,-0.22,-0.2,-0.195,-0.205,-0.21,-0.2,-0.19,-0.18,-0.2,-0.205,-0.21,-0.19,-0.16,-0.145,-0.145,-0.17,-0.175,-0.18,-0.17,-0.155,-0.16,-0.165,-0.165,-0.165,-0.14,-0.13,-0.145,-0.17,-0.18,-0.165,-0.155,-0.135,-0.125,-0.14,-0.145,-0.17,-0.155,-0.135,-0.145,-0.145,-0.145,-0.14,-0.135,-0.1,-0.1,-0.09,-0.09,-0.065,-0.015,-0.005,0.005,0.035,0.02,0.035,0.065,0.105,0.135,0.145,0.145,0.15,0.16,0.17,0.14,0.125,0.085,0.075
0.0,212.0,-0.2,-0.2,-0.225,-0.225,-0.22,-0.2,-0.195,-0.205,-0.21,-0.2,-0.19,-0.18,-0.2,-0.205,-0.21,-0.19,-0.16,-0.145,-0.145,-0.17,-0.175,-0.18,-0.17,-0.155,-0.16,-0.165,-0.165,-0.165,-0.14,-0.13,-0.145,-0.17,-0.18,-0.165,-0.155,-0.135,-0.125,-0.14,-0.145,-0.17,-0.155,-0.135,-0.145,-0.145,-0.145,-0.14,-0.135,-0.1,-0.1,-0.09,-0.09,-0.065,-0.015,-0.005,0.005,0.035,0.02,0.035,0.065,0.105,0.135,0.145,0.145,0.15,0.16,0.17,0.14,0.125,0.085,0.075,0.065,0.045,0.005,-0.055,-0.09,-0.105,-0.105,-0.1,-0.11,-0.125,-0.145,-0.135,-0.125,-0.12,-0.14,-0.165,-0.17,-0.185,-0.16,-0.14,-0.155,-0.155,-0.165,-0.175,-0.15,-0.14,-0.14,-0.15,-0.145,-0.13,-0.12,-0.09,-0.075,-0.06,-0.035,0.045,0.155,0.34,0.555,0.83,1.105,1.415,1.655,1.755,1.65,1.305,0.835,0.385,0.04,-0.135,-0.185,-0.175,-0.155,-0.125,-0.07,-0.06,-0.06,-0.08,-0.09,-0.09,-0.09,-0.095,-0.09,-0.105,-0.095,-0.08,-0.06,-0.05,-0.06,-0.075,-0.08,-0.09,-0.075,-0.04,-0.035,-0.04,-0.05,-0.05,-0.025,-0.015,-0.02,-0.04,-0.045,-0.04,-0.025,-0.005,-0.02,-0.025,-0.035,-0.025,0.0,0.0,0.015,0.015,0.015,0.025,0.035,0.05,0.025,0.02,0.025,0.035,0.07,0.085,0.1,0.07,0.07,0.065,0.1,0.12,0.135,0.13,0.135,0.135,0.155,0.17,0.16,0.155,0.14,0.15,0.185,0.2,0.2,0.175,0.165,0.15,0.16,0.165,0.175,0.17,0.145,0.15,0.15,0.135,0.12,0.085,0.045,0.045,0.03,0.03,0.015,-0.015,-0.035,-0.04,-0.045,-0.045,-0.055,-0.075,-0.085,-0.085,-0.08,-0.075,-0.09,-0.11,-0.115,-0.115,-0.095,-0.085,-0.09,-0.105,-0.12,-0.125,-0.12,-0.1,-0.105,-0.105,-0.115,-0.11,-0.085,-0.075,-0.085,-0.115,-0.12,-0.11,-0.08,-0.06,-0.075,-0.085,-0.1,-0.09,-0.09,-0.065,-0.065,-0.09,-0.095,-0.085,-0.065,-0.07,-0.075,-0.07,-0.085,-0.085,-0.06,-0.04,-0.065,-0.055,-0.07,-0.085,-0.075,-0.05,-0.055,-0.055,-0.07,-0.065,-0.055,-0.06,-0.06,-0.075,-0.09,-0.09,-0.075,-0.065,-0.065,-0.08,-0.095,-0.085,-0.08,-0.07,-0.07,-0.065,-0.075,-0.07,-0.055,-0.045,-0.05,-0.055,-0.05,-0.035,0.005,0.055
0.0,212.0,-0.1,-0.09,-0.09,-0.065,-0.065,-0.09,-0.095,-0.085,-0.065,-0.07,-0.075,-0.07,-0.085,-0.085,-0.06,-0.04,-0.065,-0.055,-0.07,-0.085,-0.075,-0.05,-0.055,-0.055,-0.07,-0.065,-0.055,-0.06,-0.06,-0.075,-0.09,-0.09,-0.075,-0.065,-0.065,-0.08,-0.095,-0.085,-0.08,-0.07,-0.07,-0.065,-0.075,-0.07,-0.055,-0.045,-0.05,-0.055,-0.05,-0.035,0.005,0.055,0.06,0.065,0.05,0.065,0.085,0.1,0.125,0.115,0.14,0.17,0.205,0.2,0.2,0.175,0.165,0.155,0.165,0.14,0.13,0.055,0.015,-0.025,-0.055,-0.055,-0.06,-0.09,-0.1,-0.12,-0.105,-0.105,-0.13,-0.145,-0.17,-0.17,-0.155,-0.14,-0.145,-0.17,-0.18,-0.185,-0.175,-0.17,-0.175,-0.19,-0.185,-0.175,-0.145,-0.12,-0.13,-0.135,-0.14,-0.12,-0.08,0.005,0.12,0.27,0.455,0.72,1.005,1.32,1.565,1.72,1.7,1.445,1.04,0.61,0.205,-0.105,-0.24,-0.235,-0.195,-0.135,-0.1,-0.1,-0.105,-0.125,-0.125,-0.115,-0.12,-0.15,-0.17,-0.15,-0.14,-0.12,-0.125,-0.145,-0.175,-0.175,-0.16,-0.125,-0.12,-0.135,-0.125,-0.115,-0.095,-0.09,-0.085,-0.105,-0.115,-0.12,-0.09,-0.065,-0.06,-0.07,-0.09,-0.09,-0.065,-0.05,-0.04,-0.055,-0.055,-0.045,-0.02,-0.005,-0.03,-0.03,-0.03,-0.02,0.005,0.015,0.015,0.015,0.01,0.015,0.04,0.055,0.04,0.04,0.045,0.07,0.085,0.11,0.105,0.1,0.095,0.09,0.11,0.14,0.15,0.145,0.14,0.145,0.165,0.165,0.16,0.155,0.135,0.135,0.15,0.175,0.175,0.135,0.115,0.095,0.1,0.085,0.085,0.065,0.03,0.025,0.02,0.0,-0.02,-0.06,-0.07,-0.075,-0.085,-0.085,-0.075,-0.095,-0.12,-0.145,-0.13,-0.12,-0.12,-0.145,-0.145,-0.145,-0.13,-0.115,-0.135,-0.145,-0.17,-0.175,-0.165,-0.15,-0.145,-0.155,-0.145,-0.145,-0.145,-0.135,-0.14,-0.145,-0.17,-0.15,-0.135,-0.11,-0.12,-0.135,-0.16,-0.16,-0.165,-0.145,-0.145,-0.16,-0.145,-0.14,-0.135,-0.14,-0.145,-0.18,-0.17,-0.165,-0.16,-0.14,-0.145,-0.155,-0.165,-0.175,-0.16,-0.155,-0.165,-0.19,-0.18,-0.175,-0.155,-0.145,-0.155,-0.2,-0.21,-0.21,-0.195,-0.17,-0.18,-0.2,-0.21,-0.2,-0.195,-0.195,-0.22,-0.225,-0.215,-0.22,-0.205,-0.18,-0.18,-0.2
0.0,212.0,-0.17,-0.165,-0.16,-0.14,-0.145,-0.155,-0.165,-0.175,-0.16,-0.155,-0.165,-0.19,-0.18,-0.175,-0.155,-0.145,-0.155,-0.2,-0.21,-0.21,-0.195,-0.17,-0.18,-0.2,-0.21,-0.2,-0.195,-0.195,-0.22,-0.225,-0.215,-0.22,-0.205,-0.18,-0.18,-0.2,-0.23,-0.21,-0.2,-0.19,-0.19,-0.195,-0.21,-0.2,-0.19,-0.175,-0.18,-0.185,-0.18,-0.145,-0.115,-0.07,-0.06,-0.075,-0.08,-0.065,-0.035,-0.005,0.005,0.03,0.05,0.075,0.085,0.075,0.07,0.04,0.04,0.02,0.03,0.015,-0.005,-0.05,-0.12,-0.16,-0.2,-0.185,-0.205,-0.21,-0.235,-0.24,-0.245,-0.23,-0.235,-0.275,-0.285,-0.285,-0.29,-0.265,-0.27,-0.29,-0.29,-0.295,-0.285,-0.27,-0.28,-0.29,-0.285,-0.275,-0.27,-0.22,-0.235,-0.24,-0.245,-0.22,-0.21,-0.13,-0.04,0.08,0.265,0.495,0.8,1.11,1.375,1.525,1.53,1.335,0.97,0.515,0.1,-0.21,-0.365,-0.39,-0.35,-0.315,-0.265,-0.255,-0.265,-0.265,-0.255,-0.255,-0.255,-0.27,-0.29,-0.295,-0.285,-0.245,-0.255,-0.26,-0.285,-0.285,-0.27,-0.265,-0.265,-0.27,-0.27,-0.255,-0.24,-0.22,-0.235,-0.25,-0.255,-0.255,-0.235,-0.23,-0.23,-0.24,-0.23,-0.23,-0.22,-0.22,-0.225,-0.23,-0.23,-0.23,-0.21,-0.18,-0.185,-0.19,-0.205,-0.225,-0.215,-0.195,-0.17,-0.175,-0.175,-0.16,-0.16,-0.14,-0.16,-0.15,-0.16,-0.15,-0.13,-0.105,-0.095,-0.115,-0.11,-0.11,-0.12,-0.09,-0.09,-0.075,-0.08,-0.075,-0.055,-0.04,-0.045,-0.055,-0.07,-0.08,-0.06,-0.06,-0.05,-0.065,-0.07,-0.095,-0.1,-0.105,-0.12,-0.15,-0.17,-0.18,-0.18,-0.17,-0.215,-0.22,-0.245,-0.265,-0.28,-0.27,-0.27,-0.285,-0.305,-0.3,-0.285,-0.31,-0.315,-0.33,-0.35,-0.335,-0.325,-0.31,-0.315,-0.33,-0.335,-0.33,-0.33,-0.33,-0.34,-0.355,-0.35,-0.33,-0.315,-0.29,-0.315,-0.33,-0.33,-0.34,-0.325,-0.305,-0.3,-0.31,-0.31,-0.31,-0.31,-0.305,-0.315,-0.32,-0.325,-0.305,-0.285,-0.265,-0.275,-0.285,-0.3,-0.305,-0.305,-0.29,-0.305,-0.315,-0.305,-0.32,-0.305,-0.305,-0.31,-0.325,-0.335,-0.34,-0.32,-0.305,-0.305,-0.325,-0.34,-0.335,-0.325,-0.32,-0.33,-0.335,-0.34,-0.345,-0.33,-0.31,-0.31,-0.335,-0.35,-0.345,-0.32,-0.295,-0.275,-0.265
0.0,212.0,-0.31,-0.31,-0.31,-0.31,-0.305,-0.315,-0.32,-0.325,-0.305,-0.285,-0.265,-0.275,-0.285,-0.3,-0.305,-0.305,-0.29,-0.305,-0.315,-0.305,-0.32,-0.305,-0.305,-0.31,-0.325,-0.335,-0.34,-0.32,-0.305,-0.305,-0.325,-0.34,-0.335,-0.325,-0.32,-0.33,-0.335,-0.34,-0.345,-0.33,-0.31,-0.31,-0.335,-0.35,-0.345,-0.32,-0.295,-0.275,-0.265,-0.26,-0.24,-0.22,-0.205,-0.2,-0.21,-0.21,-0.18,-0.135,-0.1,-0.095,-0.08,-0.1,-0.095,-0.09,-0.09,-0.095,-0.09,-0.12,-0.13,-0.15,-0.185,-0.235,-0.275,-0.32,-0.315,-0.315,-0.315,-0.335,-0.335,-0.36,-0.36,-0.355,-0.36,-0.36,-0.37,-0.395,-0.395,-0.39,-0.38,-0.37,-0.38,-0.4,-0.405,-0.395,-0.375,-0.37,-0.365,-0.36,-0.345,-0.335,-0.33,-0.335,-0.34,-0.315,-0.29,-0.22,-0.11,0.04,0.235,0.48,0.765,1.07,1.355,1.5,1.47,1.225,0.82,0.335,-0.06,-0.31,-0.415,-0.405,-0.395,-0.37,-0.325,-0.3,-0.31,-0.335,-0.32,-0.32,-0.315,-0.32,-0.31,-0.325,-0.315,-0.3,-0.295,-0.295,-0.315,-0.32,-0.315,-0.31,-0.28,-0.27,-0.27,-0.28,-0.285,-0.265,-0.255,-0.25,-0.245,-0.25,-0.245,-0.225,-0.205,-0.205,-0.22,-0.235,-0.225,-0.205,-0.185,-0.155,-0.165,-0.17,-0.185,-0.17,-0.16,-0.14,-0.145,-0.15,-0.14,-0.11,-0.09,-0.09,-0.105,-0.13,-0.105,-0.08,-0.055,-0.02,-0.02,-0.015,-0.01,0.015,0.005,0.025,0.01,0.02,0.02,0.06,0.085,0.085,0.07,0.05,0.055,0.065,0.09,0.08,0.065,0.055,0.045,0.065,0.065,0.04,-0.005,-0.01,-0.03,-0.02,-0.01,-0.02,-0.06,-0.1,-0.095,-0.095,-0.095,-0.09,-0.115,-0.12,-0.125,-0.13,-0.12,-0.14,-0.16,-0.18,-0.165,-0.135,-0.125,-0.13,-0.145,-0.145,-0.17,-0.16,-0.12,-0.125,-0.13,-0.14,-0.115,-0.105,-0.105,-0.105,-0.11,-0.12,-0.105,-0.09,-0.065,-0.06,-0.075,-0.095,-0.095,-0.085,-0.075,-0.055,-0.08,-0.08,-0.065,-0.065,-0.06,-0.06,-0.085,-0.09,-0.08,-0.075,-0.05,-0.04,-0.06,-0.065,-0.075,-0.06,-0.065,-0.065,-0.06,-0.08,-0.065,-0.055,-0.04,-0.06,-0.085,-0.105,-0.1,-0.075,-0.06,-0.05,-0.06,-0.075,-0.085,-0.075,-0.07,-0.07,-0.085,-0.08,-0.075,-0.04,-0.005,0.025,0.02,0.01,0.03,0.035,0.065,0.095
0.0,212.0,-0.06,-0.075,-0.095,-0.095,-0.085,-0.075,-0.055,-0.08,-0.08,-0.065,-0.065,-0.06,-0.06,-0.085,-0.09,-0.08,-0.075,-0.05,-0.04,-0.06,-0.065,-0.075,-0.06,-0.065,-0.065,-0.06,-0.08,-0.065,-0.055,-0.04,-0.06,-0.085,-0.105,-0.1,-0.075,-0.06,-0.05,-0.06,-0.075,-0.085,-0.075,-0.07,-0.07,-0.085,-0.08,-0.075,-0.04,-0.005,0.025,0.02,0.01,0.03,0.035,0.065,0.095,0.095,0.115,0.135,0.16,0.19,0.195,0.19,0.175,0.18,0.195,0.2,0.18,0.16,0.125,0.07,0.055,0.025,-0.02,-0.04,-0.055,-0.07,-0.075,-0.085,-0.1,-0.12,-0.15,-0.155,-0.15,-0.145,-0.145,-0.165,-0.185,-0.21,-0.19,-0.18,-0.18,-0.185,-0.185,-0.18,-0.16,-0.15,-0.17,-0.185,-0.18,-0.175,-0.145,-0.105,-0.09,-0.08,-0.045,0.03,0.155,0.32,0.535,0.815,1.1,1.4,1.625,1.705,1.545,1.14,0.665,0.205,-0.1,-0.22,-0.225,-0.19,-0.14,-0.105,-0.105,-0.105,-0.13,-0.135,-0.14,-0.14,-0.125,-0.12,-0.12,-0.15,-0.16,-0.14,-0.14,-0.13,-0.13,-0.13,-0.16,-0.13,-0.12,-0.11,-0.11,-0.13,-0.125,-0.125,-0.105,-0.075,-0.065,-0.085,-0.09,-0.095,-0.105,-0.085,-0.075,-0.075,-0.07,-0.06,-0.045,-0.04,-0.04,-0.065,-0.065,-0.05,-0.025,0.01,0.0,-0.01,-0.02,-0.015,0.02,0.03,0.04,0.035,0.04,0.05,0.09,0.1,0.095,0.085,0.08,0.09,0.125,0.15,0.145,0.145,0.14,0.16,0.175,0.195,0.195,0.185,0.17,0.18,0.205,0.225,0.21,0.19,0.155,0.15,0.15,0.165,0.155,0.135,0.105,0.1,0.06,0.06,0.03,-0.005,-0.025,-0.045,-0.04,-0.035,-0.05,-0.055,-0.085,-0.1,-0.09,-0.1,-0.12,-0.105,-0.115,-0.13,-0.105,-0.095,-0.125,-0.14,-0.15,-0.14,-0.13,-0.11,-0.1,-0.115,-0.13,-0.135,-0.14,-0.125,-0.125,-0.14,-0.14,-0.12,-0.11,-0.115,-0.12,-0.115,-0.135,-0.145,-0.115,-0.095,-0.095,-0.105,-0.12,-0.115,-0.12,-0.11,-0.105,-0.11,-0.11,-0.105,-0.1,-0.085,-0.1,-0.11,-0.115,-0.11,-0.1,-0.085,-0.085,-0.1,-0.115,-0.12,-0.105,-0.1,-0.095,-0.095,-0.095,-0.095,-0.095,-0.08,-0.09,-0.11,-0.13,-0.125,-0.105,-0.08,-0.075,-0.09,-0.105,-0.115,-0.105,-0.075,-0.08,-0.105,-0.11,-0.11,-0.085,-0.06
0.0,212.0,-0.115,-0.095,-0.095,-0.105,-0.12,-0.115,-0.12,-0.11,-0.105,-0.11,-0.11,-0.105,-0.1,-0.085,-0.1,-0.11,-0.115,-0.11,-0.1,-0.085,-0.085,-0.1,-0.115,-0.12,-0.105,-0.1,-0.095,-0.095,-0.095,-0.095,-0.095,-0.08,-0.09,-0.11,-0.13,-0.125,-0.105,-0.08,-0.075,-0.09,-0.105,-0.115,-0.105,-0.075,-0.08,-0.105,-0.11,-0.11,-0.085,-0.06,-0.065,-0.04,-0.015,0.01,0.03,0.055,0.07,0.06,0.07,0.075,0.11,0.135,0.16,0.16,0.165,0.18,0.205,0.205,0.17,0.16,0.12,0.09,0.07,0.055,0.01,-0.035,-0.075,-0.08,-0.09,-0.095,-0.115,-0.14,-0.165,-0.145,-0.14,-0.135,-0.14,-0.18,-0.19,-0.19,-0.175,-0.15,-0.15,-0.155,-0.165,-0.165,-0.17,-0.145,-0.145,-0.15,-0.15,-0.135,-0.105,-0.065,-0.055,-0.04,0.045,0.195,0.375,0.635,0.92,1.225,1.475,1.655,1.695,1.495,1.09,0.59,0.155,-0.11,-0.215,-0.205,-0.18,-0.145,-0.125,-0.11,-0.11,-0.1,-0.11,-0.11,-0.125,-0.14,-0.125,-0.115,-0.135,-0.14,-0.14,-0.12,-0.105,-0.09,-0.1,-0.1,-0.125,-0.125,-0.125,-0.1,-0.09,-0.105,-0.105,-0.1,-0.095,-0.08,-0.085,-0.105,-0.095,-0.085,-0.07,-0.06,-0.05,-0.06,-0.09,-0.08,-0.07,-0.05,-0.05,-0.05,-0.06,-0.055,-0.03,-0.01,-0.03,-0.045,-0.035,-0.03,-0.01,0.025,0.025,0.01,0.01,0.0,0.02,0.05,0.05,0.05,0.055,0.065,0.075,0.085,0.085,0.075,0.06,0.07,0.09,0.115,0.11,0.1,0.07,0.055,0.065,0.075,0.075,0.055,0.015,0.0,-0.01,-0.025,-0.06,-0.08,-0.105,-0.115,-0.1,-0.115,-0.145,-0.165,-0.21,-0.225,-0.215,-0.205,-0.22,-0.235,-0.245,-0.245,-0.255,-0.24,-0.24,-0.28,-0.29,-0.285,-0.27,-0.255,-0.26,-0.275,-0.3,-0.305,-0.285,-0.265,-0.28,-0.29,-0.29,-0.305,-0.28,-0.27,-0.265,-0.29,-0.3,-0.295,-0.275,-0.255,-0.26,-0.275,-0.28,-0.285,-0.275,-0.27,-0.27,-0.265,-0.285,-0.275,-0.26,-0.245,-0.255,-0.265,-0.28,-0.28,-0.255,-0.25,-0.24,-0.27,-0.29,-0.295,-0.295,-0.27,-0.265,-0.275,-0.29,-0.28,-0.28,-0.285,-0.295,-0.3,-0.31,-0.305,-0.295,-0.27,-0.27,-0.295,-0.305,-0.33,-0.315,-0.3,-0.315,-0.31,-0.315,-0.305,-0.31,-0.27,-0.275,-0.28,-0.255,-0.24
0.0,212.0,-0.255,-0.26,-0.275,-0.28,-0.285,-0.275,-0.27,-0.27,-0.265,-0.285,-0.275,-0.26,-0.245,-0.255,-0.265,-0.28,-0.28,-0.255,-0.25,-0.24,-0.27,-0.29,-0.295,-0.295,-0.27,-0.265,-0.275,-0.29,-0.28,-0.28,-0.285,-0.295,-0.3,-0.31,-0.305,-0.295,-0.27,-0.27,-0.295,-0.305,-0.33,-0.315,-0.3,-0.315,-0.31,-0.315,-0.305,-0.31,-0.27,-0.275,-0.28,-0.255,-0.24,-0.195,-0.195,-0.185,-0.175,-0.18,-0.165,-0.13,-0.105,-0.08,-0.065,-0.065,-0.045,-0.035,-0.03,-0.045,-0.07,-0.09,-0.11,-0.125,-0.14,-0.205,-0.255,-0.295,-0.31,-0.32,-0.32,-0.335,-0.355,-0.37,-0.375,-0.365,-0.37,-0.39,-0.4,-0.43,-0.42,-0.41,-0.385,-0.39,-0.42,-0.425,-0.425,-0.415,-0.39,-0.39,-0.4,-0.4,-0.37,-0.35,-0.335,-0.3,-0.285,-0.24,-0.14,0.065,0.3,0.585,0.895,1.16,1.395,1.47,1.36,0.965,0.475,0.005,-0.275,-0.41,-0.41,-0.42,-0.42,-0.405,-0.385,-0.35,-0.345,-0.375,-0.365,-0.39,-0.4,-0.38,-0.37,-0.385,-0.38,-0.38,-0.38,-0.365,-0.36,-0.375,-0.39,-0.4,-0.385,-0.37,-0.355,-0.36,-0.355,-0.37,-0.38,-0.37,-0.355,-0.355,-0.36,-0.355,-0.37,-0.38,-0.395,-0.415,-0.42,-0.435,-0.425,-0.41,-0.4,-0.375,-0.395,-0.41,-0.415,-0.38,-0.355,-0.365,-0.36,-0.355,-0.36,-0.35,-0.33,-0.31,-0.315,-0.315,-0.305,-0.28,-0.26,-0.265,-0.285,-0.295,-0.27,-0.25,-0.235,-0.235,-0.245,-0.255,-0.25,-0.26,-0.23,-0.255,-0.265,-0.27,-0.285,-0.3,-0.325,-0.345,-0.38,-0.385,-0.39,-0.4,-0.4,-0.42,-0.46,-0.485,-0.485,-0.48,-0.485,-0.48,-0.49,-0.495,-0.51,-0.5,-0.495,-0.5,-0.52,-0.51,-0.525,-0.505,-0.495,-0.5,-0.51,-0.525,-0.52,-0.5,-0.48,-0.48,-0.495,-0.495,-0.495,-0.49,-0.47,-0.48,-0.49,-0.475,-0.47,-0.465,-0.435,-0.45,-0.475,-0.48,-0.47,-0.455,-0.415,-0.42,-0.42,-0.46,-0.455,-0.435,-0.415,-0.425,-0.43,-0.425,-0.415,-0.405,-0.405,-0.405,-0.415,-0.42,-0.435,-0.4,-0.38,-0.375,-0.395,-0.395,-0.38,-0.35,-0.3,-0.28,-0.285,-0.295,-0.285,-0.27,-0.255,-0.27,-0.28,-0.265,-0.225,-0.185,-0.145,-0.13,-0.135,-0.155,-0.14,-0.115,-0.075,-0.065,-0.04,-0.025,0.0,0.03,0.04,0.035,0.03,0.015,0.015,0.03
0.0,212.0,-0.495,-0.495,-0.495,-0.49,-0.47,-0.48,-0.49,-0.475,-0.47,-0.465,-0.435,-0.45,-0.475,-0.48,-0.47,-0.455,-0.415,-0.42,-0.42,-0.46,-0.455,-0.435,-0.415,-0.425,-0.43,-0.425,-0.415,-0.405,-0.405,-0.405,-0.415,-0.42,-0.435,-0.4,-0.38,-0.375,-0.395,-0.395,-0.38,-0.35,-0.3,-0.28,-0.285,-0.295,-0.285,-0.27,-0.255,-0.27,-0.28,-0.265,-0.225,-0.185,-0.145,-0.13,-0.135,-0.155,-0.14,-0.115,-0.075,-0.065,-0.04,-0.025,0.0,0.03,0.04,0.035,0.03,0.015,0.015,0.03,0.025,0.0,-0.05,-0.115,-0.15,-0.175,-0.17,-0.17,-0.18,-0.21,-0.22,-0.24,-0.22,-0.25,-0.265,-0.27,-0.25,-0.255,-0.23,-0.26,-0.26,-0.28,-0.28,-0.265,-0.255,-0.235,-0.245,-0.235,-0.225,-0.22,-0.205,-0.185,-0.175,-0.16,-0.11,-0.055,0.065,0.24,0.42,0.675,1.005,1.335,1.61,1.7,1.53,1.095,0.56,0.095,-0.17,-0.26,-0.25,-0.21,-0.16,-0.115,-0.095,-0.105,-0.13,-0.145,-0.155,-0.13,-0.115,-0.14,-0.135,-0.14,-0.13,-0.135,-0.125,-0.125,-0.125,-0.12,-0.11,-0.095,-0.075,-0.07,-0.095,-0.1,-0.11,-0.085,-0.06,-0.03,-0.04,-0.055,-0.05,-0.05,-0.035,-0.03,-0.03,-0.045,-0.015,0.0,0.01,-0.005,-0.025,-0.03,-0.02,0.0,0.045,0.055,0.045,0.03,0.015,0.035,0.07,0.08,0.085,0.095,0.105,0.12,0.145,0.13,0.125,0.13,0.145,0.175,0.21,0.2,0.19,0.175,0.185,0.18,0.205,0.21,0.195,0.175,0.18,0.175,0.18,0.16,0.125,0.11,0.095,0.095,0.08,0.055,0.035,-0.02,-0.015,-0.02,-0.02,-0.025,-0.055,-0.06,-0.07,-0.075,-0.08,-0.07,-0.085,-0.095,-0.1,-0.085,-0.07,-0.09,-0.12,-0.12,-0.135,-0.105,-0.08,-0.095,-0.1,-0.11,-0.11,-0.105,-0.085,-0.09,-0.09,-0.1,-0.09,-0.065,-0.06,-0.065,-0.08,-0.095,-0.11,-0.095,-0.055,-0.045,-0.07,-0.075,-0.085,-0.065,-0.06,-0.07,-0.07,-0.08,-0.08,-0.065,-0.06,-0.04,-0.08,-0.085,-0.085,-0.075,-0.06,-0.05,-0.055,-0.08,-0.085,-0.08,-0.06,-0.06,-0.065,-0.075,-0.075,-0.08,-0.075,-0.08,-0.085,-0.105,-0.1,-0.07,-0.045,-0.04,-0.075,-0.09,-0.095,-0.075,-0.05,-0.045,-0.035,-0.035,0.0,0.045,0.065,0.065,0.055,0.05,0.085,0.115,0.155,0.17
0.0,212.0,-0.065,-0.06,-0.065,-0.08,-0.095,-0.11,-0.095,-0.055,-0.045,-0.07,-0.075,-0.085,-0.065,-0.06,-0.07,-0.07,-0.08,-0.08,-0.065,-0.06,-0.04,-0.08,-0.085,-0.085,-0.075,-0.06,-0.05,-0.055,-0.08,-0.085,-0.08,-0.06,-0.06,-0.065,-0.075,-0.075,-0.08,-0.075,-0.08,-0.085,-0.105,-0.1,-0.07,-0.045,-0.04,-0.075,-0.09,-0.095,-0.075,-0.05,-0.045,-0.035,-0.035,0.0,0.045,0.065,0.065,0.055,0.05,0.085,0.115,0.155,0.17,0.175,0.185,0.17,0.185,0.2,0.19,0.18,0.16,0.13,0.12,0.09,0.01,-0.025,-0.06,-0.085,-0.075,-0.06,-0.08,-0.105,-0.13,-0.14,-0.13,-0.125,-0.14,-0.14,-0.16,-0.155,-0.155,-0.16,-0.15,-0.165,-0.165,-0.155,-0.145,-0.12,-0.12,-0.13,-0.15,-0.145,-0.125,-0.075,-0.045,-0.01,0.075,0.19,0.41,0.665,0.97,1.26,1.535,1.705,1.69,1.43,0.965,0.455,0.035,-0.2,-0.24,-0.195,-0.13,-0.095,-0.075,-0.08,-0.09,-0.1,-0.105,-0.12,-0.115,-0.11,-0.095,-0.085,-0.095,-0.115,-0.13,-0.135,-0.115,-0.09,-0.08,-0.08,-0.095,-0.095,-0.085,-0.085,-0.085,-0.095,-0.09,-0.1,-0.065,-0.04,-0.06,-0.07,-0.095,-0.09,-0.075,-0.06,-0.05,-0.06,-0.065,-0.07,-0.055,-0.055,-0.055,-0.055,-0.04,-0.03,-0.02,0.005,-0.005,-0.01,-0.01,0.005,0.02,0.065,0.075,0.07,0.06,0.06,0.085,0.11,0.12,0.12,0.115,0.135,0.15,0.16,0.145,0.14,0.115,0.115,0.135,0.155,0.16,0.14,0.12,0.105,0.105,0.1,0.09,0.08,0.045,0.025,0.035,0.005,-0.015,-0.035,-0.075,-0.075,-0.075,-0.08,-0.09,-0.115,-0.145,-0.16,-0.15,-0.135,-0.14,-0.155,-0.17,-0.18,-0.165,-0.16,-0.175,-0.205,-0.195,-0.19,-0.175,-0.165,-0.17,-0.175,-0.2,-0.195,-0.18,-0.17,-0.17,-0.175,-0.18,-0.17,-0.16,-0.145,-0.155,-0.165,-0.17,-0.18,-0.15,-0.14,-0.13,-0.165,-0.17,-0.17,-0.165,-0.15,-0.155,-0.145,-0.155,-0.17,-0.165,-0.155,-0.16,-0.17,-0.185,-0.175,-0.155,-0.135,-0.14,-0.16,-0.185,-0.18,-0.175,-0.14,-0.145,-0.15,-0.155,-0.16,-0.16,-0.165,-0.16,-0.18,-0.195,-0.19,-0.165,-0.14,-0.155,-0.17,-0.19,-0.2,-0.18,-0.15,-0.145,-0.15,-0.165,-0.145,-0.145,-0.145,-0.14,-0.135,-0.13,-0.085
0.0,212.0,-0.17,-0.17,-0.165,-0.15,-0.155,-0.145,-0.155,-0.17,-0.165,-0.155,-0.16,-0.17,-0.185,-0.175,-0.155,-0.135,-0.14,-0.16,-0.185,-0.18,-0.175,-0.14,-0.145,-0.15,-0.155,-0.16,-0.16,-0.165,-0.16,-0.18,-0.195,-0.19,-0.165,-0.14,-0.155,-0.17,-0.19,-0.2,-0.18,-0.15,-0.145,-0.15,-0.165,-0.145,-0.145,-0.145,-0.14,-0.135,-0.13,-0.085,-0.065,-0.02,-0.03,-0.02,-0.03,-0.02,-0.005,0.035,0.05,0.06,0.08,0.085,0.085,0.09,0.09,0.065,0.035,0.03,0.04,0.04,0.015,-0.05,-0.105,-0.145,-0.15,-0.165,-0.175,-0.195,-0.21,-0.22,-0.215,-0.22,-0.24,-0.28,-0.295,-0.28,-0.275,-0.26,-0.255,-0.28,-0.295,-0.3,-0.29,-0.27,-0.27,-0.27,-0.29,-0.275,-0.26,-0.235,-0.24,-0.24,-0.24,-0.225,-0.155,-0.07,0.04,0.2,0.415,0.67,0.95,1.255,1.47,1.56,1.49,1.205,0.795,0.375,0.01,-0.25,-0.37,-0.38,-0.325,-0.255,-0.235,-0.225,-0.235,-0.255,-0.255,-0.23,-0.25,-0.285,-0.29,-0.29,-0.265,-0.25,-0.245,-0.25,-0.265,-0.28,-0.28,-0.25,-0.255,-0.25,-0.265,-0.27,-0.245,-0.235,-0.26,-0.27,-0.28,-0.265,-0.265,-0.245,-0.24,-0.235,-0.245,-0.265,-0.25,-0.235,-0.24,-0.24,-0.25,-0.26,-0.245,-0.24,-0.25,-0.265,-0.3,-0.31,-0.325,-0.33,-0.335,-0.34,-0.345,-0.34,-0.315,-0.305,-0.325,-0.315,-0.31,-0.31,-0.27,-0.255,-0.26,-0.26,-0.28,-0.26,-0.255,-0.225,-0.22,-0.225,-0.23,-0.23,-0.23,-0.215,-0.225,-0.225,-0.24,-0.26,-0.235,-0.225,-0.25,-0.28,-0.305,-0.325,-0.325,-0.315,-0.33,-0.36,-0.38,-0.4,-0.4,-0.415,-0.435,-0.46,-0.48,-0.5,-0.475,-0.475,-0.48,-0.51,-0.525,-0.535,-0.54,-0.53,-0.535,-0.54,-0.555,-0.56,-0.55,-0.535,-0.55,-0.565,-0.57,-0.58,-0.55,-0.535,-0.535,-0.54,-0.56,-0.56,-0.565,-0.545,-0.56,-0.565,-0.575,-0.555,-0.545,-0.525,-0.52,-0.535,-0.555,-0.55,-0.545,-0.51,-0.52,-0.53,-0.55,-0.545,-0.535,-0.53,-0.54,-0.55,-0.555,-0.555,-0.53,-0.525,-0.52,-0.535,-0.555,-0.555,-0.555,-0.53,-0.52,-0.54,-0.55,-0.55,-0.54,-0.53,-0.535,-0.56,-0.575,-0.57,-0.545,-0.52,-0.53,-0.545,-0.56,-0.565,-0.54,-0.525,-0.53,-0.505,-0.5,-0.475,-0.45,-0.42,-0.43,-0.45
0.0,212.0,-0.545,-0.525,-0.52,-0.535,-0.555,-0.55,-0.545,-0.51,-0.52,-0.53,-0.55,-0.545,-0.535,-0.53,-0.54,-0.55,-0.555,-0.555,-0.53,-0.525,-0.52,-0.535,-0.555,-0.555,-0.555,-0.53,-0.52,-0.54,-0.55,-0.55,-0.54,-0.53,-0.535,-0.56,-0.575,-0.57,-0.545,-0.52,-0.53,-0.545,-0.56,-0.565,-0.54,-0.525,-0.53,-0.505,-0.5,-0.475,-0.45,-0.42,-0.43,-0.45,-0.44,-0.42,-0.38,-0.345,-0.325,-0.315,-0.315,-0.305,-0.295,-0.28,-0.3,-0.32,-0.33,-0.335,-0.335,-0.36,-0.37,-0.435,-0.5,-0.525,-0.53,-0.54,-0.56,-0.565,-0.595,-0.585,-0.58,-0.57,-0.59,-0.61,-0.635,-0.635,-0.63,-0.6,-0.6,-0.61,-0.635,-0.64,-0.645,-0.635,-0.63,-0.63,-0.625,-0.605,-0.6,-0.575,-0.57,-0.59,-0.595,-0.58,-0.565,-0.515,-0.46,-0.395,-0.275,-0.095,0.16,0.44,0.735,1.0,1.185,1.245,1.095,0.73,0.245,-0.21,-0.52,-0.655,-0.67,-0.645,-0.64,-0.62,-0.595,-0.58,-0.565,-0.56,-0.575,-0.585,-0.61,-0.59,-0.585,-0.56,-0.55,-0.585,-0.59,-0.585,-0.575,-0.57,-0.56,-0.56,-0.57,-0.56,-0.54,-0.54,-0.53,-0.555,-0.565,-0.55,-0.535,-0.52,-0.525,-0.525,-0.53,-0.53,-0.515,-0.505,-0.505,-0.52,-0.52,-0.515,-0.505,-0.485,-0.475,-0.495,-0.505,-0.505,-0.505,-0.475,-0.48,-0.465,-0.455,-0.46,-0.45,-0.43,-0.445,-0.46,-0.465,-0.455,-0.435,-0.43,-0.41,-0.405,-0.405,-0.39,-0.375,-0.345,-0.355,-0.345,-0.345,-0.37,-0.32,-0.31,-0.305,-0.315,-0.33,-0.345,-0.325,-0.31,-0.305,-0.32,-0.325,-0.33,-0.335,-0.33,-0.365,-0.375,-0.4,-0.405,-0.405,-0.395,-0.41,-0.43,-0.46,-0.475,-0.48,-0.485,-0.495,-0.495,-0.52,-0.525,-0.525,-0.51,-0.515,-0.525,-0.555,-0.545,-0.55,-0.525,-0.525,-0.535,-0.535,-0.545,-0.535,-0.53,-0.53,-0.545,-0.55,-0.535,-0.525,-0.51,-0.52,-0.53,-0.53,-0.525,-0.52,-0.505,-0.505,-0.515,-0.505,-0.49,-0.495,-0.485,-0.495,-0.5,-0.515,-0.515,-0.485,-0.465,-0.465,-0.47,-0.47,-0.47,-0.46,-0.45,-0.44,-0.45,-0.46,-0.455,-0.435,-0.415,-0.415,-0.43,-0.45,-0.45,-0.43,-0.41,-0.41,-0.42,-0.435,-0.425,-0.425,-0.425,-0.43,-0.44,-0.445,-0.425,-0.415,-0.4,-0.4,-0.39,-0.4,-0.395,-0.36,-0.35,-0.325,-0.3,-0.29,-0.28
0.0,212.0,-0.505,-0.505,-0.515,-0.505,-0.49,-0.495,-0.485,-0.495,-0.5,-0.515,-0.515,-0.485,-0.465,-0.465,-0.47,-0.47,-0.47,-0.46,-0.45,-0.44,-0.45,-0.46,-0.455,-0.435,-0.415,-0.415,-0.43,-0.45,-0.45,-0.43,-0.41,-0.41,-0.42,-0.435,-0.425,-0.425,-0.425,-0.43,-0.44,-0.445,-0.425,-0.415,-0.4,-0.4,-0.39,-0.4,-0.395,-0.36,-0.35,-0.325,-0.3,-0.29,-0.28,-0.265,-0.23,-0.235,-0.215,-0.22,-0.185,-0.145,-0.1,-0.095,-0.105,-0.11,-0.115,-0.12,-0.12,-0.14,-0.165,-0.205,-0.24,-0.265,-0.285,-0.305,-0.34,-0.37,-0.39,-0.38,-0.38,-0.385,-0.4,-0.41,-0.405,-0.41,-0.41,-0.425,-0.435,-0.435,-0.43,-0.42,-0.395,-0.405,-0.43,-0.44,-0.43,-0.405,-0.38,-0.375,-0.365,-0.38,-0.355,-0.34,-0.315,-0.285,-0.245,-0.18,-0.035,0.17,0.42,0.685,1.01,1.3,1.535,1.63,1.51,1.13,0.615,0.16,-0.18,-0.375,-0.405,-0.39,-0.345,-0.315,-0.29,-0.265,-0.25,-0.255,-0.28,-0.295,-0.3,-0.305,-0.29,-0.295,-0.305,-0.31,-0.3,-0.285,-0.265,-0.27,-0.29,-0.3,-0.285,-0.28,-0.255,-0.25,-0.25,-0.255,-0.26,-0.25,-0.235,-0.255,-0.255,-0.255,-0.245,-0.22,-0.2,-0.21,-0.22,-0.23,-0.245,-0.225,-0.205,-0.215,-0.22,-0.22,-0.2,-0.2,-0.18,-0.19,-0.19,-0.19,-0.205,-0.175,-0.16,-0.155,-0.145,-0.15,-0.15,-0.125,-0.12,-0.11,-0.105,-0.1,-0.09,-0.06,-0.03,-0.045,-0.05,-0.075,-0.065,-0.035,-0.01,-0.01,-0.015,-0.025,-0.035,-0.03,-0.02,-0.025,-0.04,-0.06,-0.065,-0.05,-0.04,-0.055,-0.1,-0.13,-0.14,-0.16,-0.155,-0.16,-0.18,-0.21,-0.235,-0.22,-0.23,-0.265,-0.275,-0.29,-0.3,-0.295,-0.275,-0.285,-0.29,-0.305,-0.325,-0.325,-0.31,-0.315,-0.32,-0.325,-0.335,-0.325,-0.315,-0.32,-0.345,-0.37,-0.375,-0.345,-0.33,-0.315,-0.33,-0.345,-0.35,-0.345,-0.325,-0.32,-0.34,-0.34,-0.335,-0.31,-0.3,-0.295,-0.325,-0.34,-0.335,-0.325,-0.3,-0.29,-0.305,-0.29,-0.295,-0.285,-0.28,-0.28,-0.295,-0.31,-0.3,-0.3,-0.265,-0.255,-0.275,-0.295,-0.295,-0.285,-0.28,-0.28,-0.285,-0.3,-0.295,-0.285,-0.285,-0.285,-0.295,-0.305,-0.31,-0.3,-0.26,-0.275,-0.285,-0.305,-0.295,-0.275,-0.27,-0.28,-0.295,-0.305,-0.295,-0.275
0.0,212.0,-0.34,-0.335,-0.325,-0.3,-0.29,-0.305,-0.29,-0.295,-0.285,-0.28,-0.28,-0.295,-0.31,-0.3,-0.3,-0.265,-0.255,-0.275,-0.295,-0.295,-0.285,-0.28,-0.28,-0.285,-0.3,-0.295,-0.285,-0.285,-0.285,-0.295,-0.305,-0.31,-0.3,-0.26,-0.275,-0.285,-0.305,-0.295,-0.275,-0.27,-0.28,-0.295,-0.305,-0.295,-0.275,-0.235,-0.215,-0.21,-0.185,-0.19,-0.175,-0.16,-0.15,-0.16,-0.145,-0.12,-0.095,-0.055,-0.04,-0.055,-0.065,-0.065,-0.045,-0.03,-0.045,-0.065,-0.085,-0.11,-0.135,-0.175,-0.225,-0.285,-0.285,-0.3,-0.31,-0.305,-0.295,-0.325,-0.35,-0.365,-0.36,-0.35,-0.345,-0.36,-0.37,-0.37,-0.365,-0.365,-0.365,-0.39,-0.405,-0.4,-0.37,-0.36,-0.345,-0.34,-0.35,-0.35,-0.345,-0.325,-0.305,-0.3,-0.295,-0.26,-0.21,-0.11,-0.015,0.145,0.345,0.6,0.91,1.225,1.485,1.65,1.655,1.435,1.005,0.525,0.05,-0.29,-0.43,-0.415,-0.34,-0.26,-0.23,-0.23,-0.26,-0.29,-0.275,-0.27,-0.29,-0.3,-0.315,-0.3,-0.29,-0.27,-0.27,-0.285,-0.305,-0.3,-0.315,-0.265,-0.25,-0.255,-0.27,-0.265,-0.27,-0.255,-0.245,-0.24,-0.26,-0.255,-0.235,-0.215,-0.225,-0.225,-0.235,-0.24,-0.235,-0.215,-0.21,-0.215,-0.225,-0.215,-0.21,-0.195,-0.21,-0.225,-0.215,-0.215,-0.18,-0.165,-0.16,-0.165,-0.205,-0.195,-0.175,-0.145,-0.14,-0.135,-0.13,-0.115,-0.095,-0.085,-0.075,-0.085,-0.08,-0.055,-0.04,0.0,-0.005,-0.015,-0.02,-0.005,0.005,0.015,0.02,0.025,0.025,0.015,0.03,0.04,0.03,0.0,-0.015,-0.04,-0.025,-0.02,-0.05,-0.07,-0.095,-0.12,-0.12,-0.12,-0.13,-0.16,-0.175,-0.175,-0.17,-0.18,-0.185,-0.215,-0.23,-0.235,-0.22,-0.205,-0.21,-0.22,-0.22,-0.23,-0.23,-0.225,-0.23,-0.245,-0.25,-0.235,-0.235,-0.225,-0.215,-0.255,-0.245,-0.265,-0.26,-0.235,-0.22,-0.23,-0.23,-0.245,-0.24,-0.23,-0.235,-0.25,-0.255,-0.245,-0.225,-0.205,-0.205,-0.21,-0.23,-0.24,-0.225,-0.215,-0.215,-0.23,-0.235,-0.23,-0.22,-0.215,-0.22,-0.235,-0.25,-0.23,-0.21,-0.2,-0.2,-0.225,-0.24,-0.26,-0.245,-0.23,-0.21,-0.22,-0.25,-0.23,-0.225,-0.23,-0.24,-0.25,-0.255,-0.25,-0.23,-0.215,-0.215,-0.225,-0.235,-0.245,-0.23,-0.195,-0.17,-0.145
0.0,212.0,-0.24,-0.23,-0.235,-0.25,-0.255,-0.245,-0.225,-0.205,-0.205,-0.21,-0.23,-0.24,-0.225,-0.215,-0.215,-0.23,-0.235,-0.23,-0.22,-0.215,-0.22,-0.235,-0.25,-0.23,-0.21,-0.2,-0.2,-0.225,-0.24,-0.26,-0.245,-0.23,-0.21,-0.22,-0.25,-0.23,-0.225,-0.23,-0.24,-0.25,-0.255,-0.25,-0.23,-0.215,-0.215,-0.225,-0.235,-0.245,-0.23,-0.195,-0.17,-0.145,-0.125,-0.105,-0.08,-0.06,-0.055,-0.06,-0.045,-0.015,0.02,0.055,0.065,0.07,0.045,0.05,0.055,0.055,0.04,0.02,-0.025,-0.05,-0.075,-0.095,-0.14,-0.175,-0.2,-0.22,-0.22,-0.21,-0.22,-0.245,-0.265,-0.27,-0.26,-0.265,-0.275,-0.28,-0.3,-0.295,-0.28,-0.265,-0.265,-0.29,-0.3,-0.305,-0.28,-0.26,-0.245,-0.245,-0.255,-0.245,-0.245,-0.215,-0.17,-0.13,-0.055,0.085,0.28,0.515,0.77,1.04,1.295,1.505,1.515,1.315,0.895,0.405,0.005,-0.25,-0.33,-0.31,-0.27,-0.24,-0.215,-0.2,-0.195,-0.2,-0.205,-0.23,-0.24,-0.255,-0.235,-0.21,-0.215,-0.225,-0.235,-0.235,-0.24,-0.235,-0.24,-0.24,-0.24,-0.255,-0.225,-0.2,-0.205,-0.215,-0.235,-0.22,-0.205,-0.185,-0.18,-0.185,-0.19,-0.205,-0.2,-0.205,-0.18,-0.195,-0.195,-0.18,-0.16,-0.145,-0.145,-0.15,-0.16,-0.16,-0.135,-0.115,-0.11,-0.11,-0.1,-0.095,-0.085,-0.06,-0.065,-0.06,-0.065,-0.05,-0.02,-0.015,0.005,-0.005,-0.035,-0.015,0.0,0.03,0.045,0.03,0.02,0.005,0.035,0.035,0.025,0.01,0.0,0.005,0.015,0.01,0.01,-0.01,-0.05,-0.065,-0.075,-0.07,-0.09,-0.11,-0.13,-0.155,-0.15,-0.175,-0.185,-0.205,-0.235,-0.23,-0.235,-0.215,-0.235,-0.245,-0.26,-0.275,-0.27,-0.265,-0.27,-0.275,-0.275,-0.285,-0.29,-0.295,-0.295,-0.305,-0.315,-0.32,-0.305,-0.275,-0.285,-0.295,-0.315,-0.32,-0.305,-0.28,-0.285,-0.295,-0.3,-0.305,-0.295,-0.28,-0.29,-0.305,-0.33,-0.315,-0.315,-0.285,-0.275,-0.295,-0.32,-0.32,-0.315,-0.295,-0.3,-0.305,-0.3,-0.31,-0.285,-0.275,-0.3,-0.31,-0.32,-0.325,-0.3,-0.285,-0.285,-0.3,-0.315,-0.33,-0.32,-0.3,-0.33,-0.32,-0.325,-0.34,-0.325,-0.325,-0.33,-0.345,-0.335,-0.33,-0.315,-0.3,-0.3,-0.295,-0.29,-0.27,-0.245,-0.195,-0.195,-0.195,-0.185,-0.18
0.0,212.0,-0.305,-0.28,-0.285,-0.295,-0.3,-0.305,-0.295,-0.28,-0.29,-0.305,-0.33,-0.315,-0.315,-0.285,-0.275,-0.295,-0.32,-0.32,-0.315,-0.295,-0.3,-0.305,-0.3,-0.31,-0.285,-0.275,-0.3,-0.31,-0.32,-0.325,-0.3,-0.285,-0.285,-0.3,-0.315,-0.33,-0.32,-0.3,-0.33,-0.32,-0.325,-0.34,-0.325,-0.325,-0.33,-0.345,-0.335,-0.33,-0.315,-0.3,-0.3,-0.295,-0.29,-0.27,-0.245,-0.195,-0.195,-0.195,-0.185,-0.18,-0.18,-0.14,-0.125,-0.115,-0.12,-0.11,-0.095,-0.055,-0.085,-0.115,-0.14,-0.165,-0.175,-0.2,-0.24,-0.295,-0.32,-0.335,-0.345,-0.355,-0.37,-0.395,-0.4,-0.41,-0.405,-0.38,-0.39,-0.41,-0.44,-0.435,-0.425,-0.41,-0.41,-0.415,-0.43,-0.445,-0.425,-0.425,-0.41,-0.405,-0.415,-0.39,-0.375,-0.345,-0.3,-0.25,-0.165,-0.02,0.195,0.47,0.785,1.08,1.32,1.42,1.29,0.915,0.385,-0.075,-0.355,-0.45,-0.45,-0.41,-0.4,-0.38,-0.385,-0.4,-0.385,-0.365,-0.37,-0.395,-0.405,-0.41,-0.4,-0.39,-0.385,-0.39,-0.405,-0.375,-0.36,-0.355,-0.375,-0.39,-0.405,-0.39,-0.385,-0.35,-0.34,-0.34,-0.35,-0.355,-0.34,-0.33,-0.325,-0.335,-0.34,-0.34,-0.33,-0.3,-0.32,-0.325,-0.335,-0.325,-0.315,-0.29,-0.29,-0.305,-0.3,-0.305,-0.285,-0.265,-0.27,-0.265,-0.27,-0.255,-0.24,-0.22,-0.23,-0.23,-0.24,-0.235,-0.205,-0.175,-0.175,-0.175,-0.185,-0.18,-0.165,-0.145,-0.15,-0.16,-0.17,-0.15,-0.14,-0.125,-0.14,-0.155,-0.18,-0.195,-0.155,-0.145,-0.155,-0.18,-0.195,-0.21,-0.235,-0.24,-0.245,-0.27,-0.285,-0.305,-0.29,-0.305,-0.325,-0.34,-0.38,-0.39,-0.365,-0.35,-0.35,-0.36,-0.395,-0.4,-0.385,-0.375,-0.37,-0.375,-0.37,-0.365,-0.345,-0.335,-0.365,-0.375,-0.395,-0.385,-0.36,-0.35,-0.34,-0.345,-0.36,-0.38,-0.375,-0.36,-0.36,-0.365,-0.365,-0.375,-0.345,-0.34,-0.35,-0.375,-0.38,-0.38,-0.345,-0.33,-0.34,-0.35,-0.36,-0.355,-0.36,-0.35,-0.36,-0.35,-0.36,-0.345,-0.34,-0.35,-0.355,-0.375,-0.385,-0.38,-0.37,-0.36,-0.355,-0.37,-0.38,-0.38,-0.385,-0.36,-0.35,-0.37,-0.365,-0.355,-0.34,-0.325,-0.325,-0.34,-0.345,-0.34,-0.315,-0.275,-0.245,-0.23,-0.24,-0.22,-0.215,-0.185,-0.165,-0.155,-0.15,-0.11
0.0,212.0,-0.34,-0.345,-0.36,-0.38,-0.375,-0.36,-0.36,-0.365,-0.365,-0.375,-0.345,-0.34,-0.35,-0.375,-0.38,-0.38,-0.345,-0.33,-0.34,-0.35,-0.36,-0.355,-0.36,-0.35,-0.36,-0.35,-0.36,-0.345,-0.34,-0.35,-0.355,-0.375,-0.385,-0.38,-0.37,-0.36,-0.355,-0.37,-0.38,-0.38,-0.385,-0.36,-0.35,-0.37,-0.365,-0.355,-0.34,-0.325,-0.325,-0.34,-0.345,-0.34,-0.315,-0.275,-0.245,-0.23,-0.24,-0.22,-0.215,-0.185,-0.165,-0.155,-0.15,-0.11,-0.08,-0.045,-0.06,-0.085,-0.1,-0.11,-0.105,-0.09,-0.11,-0.145,-0.21,-0.25,-0.275,-0.29,-0.305,-0.31,-0.34,-0.34,-0.325,-0.315,-0.33,-0.355,-0.365,-0.375,-0.35,-0.325,-0.345,-0.34,-0.36,-0.37,-0.365,-0.345,-0.345,-0.34,-0.335,-0.33,-0.32,-0.31,-0.295,-0.29,-0.285,-0.25,-0.155,-0.03,0.145,0.39,0.685,1.015,1.365,1.575,1.56,1.25,0.78,0.28,-0.115,-0.3,-0.365,-0.37,-0.36,-0.32,-0.28,-0.255,-0.29,-0.305,-0.325,-0.315,-0.305,-0.28,-0.29,-0.3,-0.295,-0.3,-0.295,-0.27,-0.285,-0.285,-0.29,-0.27,-0.24,-0.23,-0.245,-0.25,-0.26,-0.255,-0.24,-0.22,-0.215,-0.21,-0.22,-0.215,-0.21,-0.2,-0.195,-0.2,-0.195,-0.185,-0.17,-0.155,-0.17,-0.175,-0.18,-0.175,-0.16,-0.13,-0.115,-0.135,-0.155,-0.15,-0.125,-0.105,-0.095,-0.09,-0.09,-0.075,-0.055,-0.045,-0.05,-0.07,-0.05,-0.035,-0.025,0.005,0.0,-0.015,-0.04,-0.03,-0.02,-0.005,0.02,0.0,-0.01,-0.01,-0.015,-0.025,-0.035,-0.055,-0.08,-0.095,-0.09,-0.09,-0.115,-0.155,-0.175,-0.19,-0.195,-0.195,-0.2,-0.22,-0.22,-0.245,-0.245,-0.24,-0.24,-0.255,-0.265,-0.25,-0.25,-0.235,-0.25,-0.265,-0.28,-0.285,-0.27,-0.235,-0.23,-0.245,-0.24,-0.255,-0.23,-0.23,-0.225,-0.23,-0.23,-0.22,-0.215,-0.205,-0.2,-0.225,-0.255,-0.245,-0.24,-0.205,-0.195,-0.195,-0.205,-0.205,-0.205,-0.185,-0.19,-0.2,-0.195,-0.19,-0.175,-0.155,-0.17,-0.19,-0.215,-0.21,-0.21,-0.175,-0.18,-0.17,-0.175,-0.2,-0.195,-0.18,-0.19,-0.2,-0.19,-0.18,-0.165,-0.16,-0.165,-0.18,-0.205,-0.21,-0.19,-0.15,-0.15,-0.145,-0.14,-0.135,-0.115,-0.075,-0.05,-0.05,-0.05,-0.03,0.005,0.03,0.05,0.035,0.06,0.07,0.105,0.12
0.0,212.0,-0.23,-0.22,-0.215,-0.205,-0.2,-0.225,-0.255,-0.245,-0.24,-0.205,-0.195,-0.195,-0.205,-0.205,-0.205,-0.185,-0.19,-0.2,-0.195,-0.19,-0.175,-0.155,-0.17,-0.19,-0.215,-0.21,-0.21,-0.175,-0.18,-0.17,-0.175,-0.2,-0.195,-0.18,-0.19,-0.2,-0.19,-0.18,-0.165,-0.16,-0.165,-0.18,-0.205,-0.21,-0.19,-0.15,-0.15,-0.145,-0.14,-0.135,-0.115,-0.075,-0.05,-0.05,-0.05,-0.03,0.005,0.03,0.05,0.035,0.06,0.07,0.105,0.12,0.125,0.115,0.1,0.075,0.07,0.07,0.03,-0.005,-0.05,-0.09,-0.09,-0.09,-0.11,-0.155,-0.17,-0.18,-0.16,-0.165,-0.15,-0.165,-0.195,-0.185,-0.2,-0.18,-0.195,-0.2,-0.21,-0.215,-0.195,-0.18,-0.175,-0.195,-0.2,-0.21,-0.185,-0.16,-0.14,-0.145,-0.13,-0.1,-0.065,0.0,0.095,0.235,0.43,0.72,1.06,1.39,1.65,1.755,1.62,1.27,0.79,0.315,-0.035,-0.245,-0.295,-0.225,-0.15,-0.11,-0.1,-0.135,-0.14,-0.145,-0.135,-0.12,-0.12,-0.145,-0.16,-0.18,-0.15,-0.13,-0.13,-0.13,-0.13,-0.13,-0.13,-0.115,-0.125,-0.135,-0.125,-0.11,-0.09,-0.075,-0.085,-0.095,-0.115,-0.11,-0.095,-0.08,-0.075,-0.065,-0.08,-0.08,-0.07,-0.06,-0.07,-0.08,-0.095,-0.085,-0.06,-0.035,-0.035,-0.05,-0.065,-0.06,-0.03,-0.015,-0.005,-0.01,-0.005,-0.005,0.02,0.025,0.02,0.025,0.015,0.035,0.07,0.095,0.095,0.085,0.075,0.08,0.09,0.11,0.115,0.11,0.105,0.105,0.11,0.11,0.09,0.075,0.06,0.055,0.07,0.065,0.035,0.005,-0.01,-0.035,-0.04,-0.035,-0.06,-0.085,-0.105,-0.11,-0.12,-0.12,-0.145,-0.16,-0.17,-0.18,-0.16,-0.145,-0.16,-0.185,-0.2,-0.195,-0.18,-0.185,-0.175,-0.175,-0.18,-0.19,-0.185,-0.17,-0.18,-0.19,-0.205,-0.2,-0.175,-0.18,-0.175,-0.21,-0.21,-0.205,-0.175,-0.155,-0.17,-0.17,-0.175,-0.175,-0.175,-0.155,-0.16,-0.165,-0.16,-0.175,-0.15,-0.14,-0.14,-0.155,-0.19,-0.19,-0.15,-0.14,-0.14,-0.155,-0.17,-0.175,-0.175,-0.155,-0.165,-0.175,-0.17,-0.185,-0.165,-0.155,-0.16,-0.19,-0.2,-0.195,-0.165,-0.15,-0.14,-0.155,-0.18,-0.175,-0.16,-0.125,-0.1,-0.095,-0.06,-0.055,-0.04,-0.015,0.0,0.005,0.02,0.04,0.07,0.105,0.11,0.1
0.0,212.0,-0.2,-0.175,-0.18,-0.175,-0.21,-0.21,-0.205,-0.175,-0.155,-0.17,-0.17,-0.175,-0.175,-0.175,-0.155,-0.16,-0.165,-0.16,-0.175,-0.15,-0.14,-0.14,-0.155,-0.19,-0.19,-0.15,-0.14,-0.14,-0.155,-0.17,-0.175,-0.175,-0.155,-0.165,-0.175,-0.17,-0.185,-0.165,-0.155,-0.16,-0.19,-0.2,-0.195,-0.165,-0.15,-0.14,-0.155,-0.18,-0.175,-0.16,-0.125,-0.1,-0.095,-0.06,-0.055,-0.04,-0.015,0.0,0.005,0.02,0.04,0.07,0.105,0.11,0.1,0.09,0.075,0.065,0.08,0.06,0.015,-0.025,-0.065,-0.1,-0.115,-0.145,-0.17,-0.21,-0.2,-0.2,-0.2,-0.21,-0.235,-0.265,-0.27,-0.265,-0.245,-0.255,-0.255,-0.26,-0.265,-0.255,-0.255,-0.265,-0.26,-0.27,-0.255,-0.235,-0.21,-0.22,-0.225,-0.23,-0.21,-0.165,-0.125,-0.055,0.065,0.22,0.425,0.72,1.03,1.33,1.55,1.595,1.395,1.0,0.495,0.055,-0.225,-0.335,-0.335,-0.29,-0.235,-0.205,-0.195,-0.21,-0.215,-0.21,-0.21,-0.23,-0.24,-0.245,-0.235,-0.225,-0.21,-0.22,-0.24,-0.245,-0.25,-0.225,-0.205,-0.21,-0.21,-0.21,-0.21,-0.2,-0.195,-0.195,-0.2,-0.215,-0.195,-0.18,-0.15,-0.155,-0.165,-0.185,-0.195,-0.17,-0.145,-0.155,-0.16,-0.165,-0.15,-0.125,-0.12,-0.135,-0.15,-0.15,-0.135,-0.105,-0.08,-0.075,-0.085,-0.09,-0.09,-0.08,-0.05,-0.05,-0.05,-0.045,-0.02,-0.005,0.01,0.015,0.0,0.005,0.01,0.03,0.04,0.055,0.05,0.035,0.01,0.035,0.035,0.03,0.01,0.015,0.01,0.01,0.015,0.0,-0.035,-0.065,-0.075,-0.085,-0.075,-0.095,-0.125,-0.145,-0.17,-0.175,-0.175,-0.19,-0.22,-0.235,-0.235,-0.22,-0.225,-0.24,-0.275,-0.295,-0.3,-0.275,-0.255,-0.25,-0.26,-0.275,-0.285,-0.275,-0.28,-0.295,-0.3,-0.305,-0.28,-0.275,-0.26,-0.29,-0.28,-0.3,-0.305,-0.305,-0.265,-0.27,-0.27,-0.265,-0.28,-0.28,-0.255,-0.27,-0.28,-0.285,-0.285,-0.265,-0.24,-0.245,-0.275,-0.295,-0.295,-0.285,-0.255,-0.265,-0.275,-0.28,-0.265,-0.28,-0.28,-0.28,-0.28,-0.29,-0.28,-0.265,-0.255,-0.265,-0.28,-0.295,-0.31,-0.295,-0.265,-0.26,-0.27,-0.28,-0.26,-0.23,-0.205,-0.195,-0.185,-0.185,-0.18,-0.145,-0.12,-0.105,-0.1,-0.1,-0.085,-0.055,-0.04,-0.05,-0.055,-0.075
0.0,212.0,-0.28,-0.275,-0.26,-0.29,-0.28,-0.3,-0.305,-0.305,-0.265,-0.27,-0.27,-0.265,-0.28,-0.28,-0.255,-0.27,-0.28,-0.285,-0.285,-0.265,-0.24,-0.245,-0.275,-0.295,-0.295,-0.285,-0.255,-0.265,-0.275,-0.28,-0.265,-0.28,-0.28,-0.28,-0.28,-0.29,-0.28,-0.265,-0.255,-0.265,-0.28,-0.295,-0.31,-0.295,-0.265,-0.26,-0.27,-0.28,-0.26,-0.23,-0.205,-0.195,-0.185,-0.185,-0.18,-0.145,-0.12,-0.105,-0.1,-0.1,-0.085,-0.055,-0.04,-0.05,-0.055,-0.075,-0.035,-0.04,-0.055,-0.095,-0.155,-0.195,-0.24,-0.255,-0.255,-0.27,-0.295,-0.32,-0.325,-0.325,-0.34,-0.36,-0.37,-0.375,-0.375,-0.36,-0.35,-0.365,-0.4,-0.405,-0.405,-0.4,-0.36,-0.375,-0.37,-0.38,-0.375,-0.365,-0.355,-0.365,-0.36,-0.345,-0.34,-0.305,-0.26,-0.21,-0.12,0.015,0.225,0.505,0.815,1.12,1.34,1.455,1.37,1.05,0.59,0.115,-0.23,-0.4,-0.45,-0.425,-0.39,-0.385,-0.36,-0.375,-0.36,-0.355,-0.335,-0.34,-0.345,-0.365,-0.365,-0.365,-0.35,-0.355,-0.37,-0.38,-0.37,-0.355,-0.32,-0.335,-0.35,-0.375,-0.36,-0.345,-0.32,-0.315,-0.32,-0.335,-0.33,-0.325,-0.305,-0.325,-0.32,-0.32,-0.325,-0.32,-0.285,-0.275,-0.295,-0.305,-0.305,-0.305,-0.28,-0.285,-0.295,-0.275,-0.255,-0.23,-0.245,-0.245,-0.25,-0.255,-0.24,-0.225,-0.195,-0.19,-0.195,-0.21,-0.21,-0.19,-0.165,-0.15,-0.145,-0.16,-0.15,-0.145,-0.13,-0.135,-0.145,-0.15,-0.14,-0.12,-0.115,-0.12,-0.12,-0.14,-0.155,-0.155,-0.155,-0.16,-0.19,-0.205,-0.21,-0.23,-0.22,-0.255,-0.275,-0.31,-0.33,-0.32,-0.31,-0.335,-0.36,-0.365,-0.385,-0.39,-0.38,-0.395,-0.405,-0.42,-0.415,-0.405,-0.41,-0.415,-0.44,-0.45,-0.44,-0.435,-0.41,-0.42,-0.42,-0.445,-0.455,-0.44,-0.425,-0.415,-0.425,-0.44,-0.43,-0.42,-0.405,-0.415,-0.42,-0.43,-0.445,-0.42,-0.405,-0.39,-0.42,-0.435,-0.43,-0.425,-0.425,-0.42,-0.41,-0.42,-0.41,-0.395,-0.385,-0.39,-0.435,-0.44,-0.43,-0.425,-0.405,-0.39,-0.405,-0.425,-0.435,-0.415,-0.415,-0.445,-0.43,-0.44,-0.425,-0.395,-0.36,-0.345,-0.36,-0.355,-0.35,-0.33,-0.32,-0.305,-0.295,-0.27,-0.25,-0.235,-0.185,-0.185,-0.195,-0.215,-0.205,-0.19,-0.17,-0.2,-0.225,-0.25
0.0,212.0,-0.42,-0.445,-0.455,-0.44,-0.425,-0.415,-0.425,-0.44,-0.43,-0.42,-0.405,-0.415,-0.42,-0.43,-0.445,-0.42,-0.405,-0.39,-0.42,-0.435,-0.43,-0.425,-0.425,-0.42,-0.41,-0.42,-0.41,-0.395,-0.385,-0.39,-0.435,-0.44,-0.43,-0.425,-0.405,-0.39,-0.405,-0.425,-0.435,-0.415,-0.415,-0.445,-0.43,-0.44,-0.425,-0.395,-0.36,-0.345,-0.36,-0.355,-0.35,-0.33,-0.32,-0.305,-0.295,-0.27,-0.25,-0.235,-0.185,-0.185,-0.195,-0.215,-0.205,-0.19,-0.17,-0.2,-0.225,-0.25,-0.29,-0.31,-0.335,-0.38,-0.41,-0.42,-0.445,-0.435,-0.425,-0.455,-0.48,-0.49,-0.505,-0.49,-0.48,-0.49,-0.505,-0.515,-0.51,-0.52,-0.5,-0.515,-0.515,-0.535,-0.525,-0.505,-0.475,-0.475,-0.495,-0.505,-0.49,-0.455,-0.43,-0.425,-0.405,-0.375,-0.325,-0.23,-0.1,0.095,0.335,0.6,0.925,1.235,1.455,1.515,1.325,0.945,0.46,0.025,-0.28,-0.45,-0.505,-0.49,-0.47,-0.435,-0.395,-0.375,-0.39,-0.4,-0.41,-0.39,-0.35,-0.355,-0.365,-0.38,-0.38,-0.375,-0.35,-0.36,-0.38,-0.365,-0.33,-0.32,-0.305,-0.3,-0.32,-0.34,-0.33,-0.305,-0.275,-0.27,-0.275,-0.285,-0.285,-0.275,-0.265,-0.27,-0.265,-0.28,-0.255,-0.23,-0.22,-0.215,-0.235,-0.245,-0.245,-0.225,-0.21,-0.195,-0.195,-0.195,-0.19,-0.185,-0.165,-0.165,-0.18,-0.175,-0.165,-0.14,-0.115,-0.1,-0.105,-0.12,-0.115,-0.085,-0.065,-0.065,-0.065,-0.05,-0.035,-0.03,-0.01,-0.015,-0.03,-0.04,-0.025,-0.005,0.005,0.005,-0.01,-0.025,-0.025,-0.025,-0.03,-0.04,-0.07,-0.075,-0.08,-0.095,-0.095,-0.125,-0.165,-0.185,-0.185,-0.19,-0.19,-0.19,-0.205,-0.225,-0.23,-0.235,-0.235,-0.25,-0.265,-0.29,-0.29,-0.28,-0.26,-0.26,-0.27,-0.29,-0.285,-0.29,-0.27,-0.26,-0.275,-0.29,-0.295,-0.27,-0.25,-0.27,-0.29,-0.295,-0.29,-0.295,-0.26,-0.255,-0.25,-0.27,-0.27,-0.26,-0.26,-0.27,-0.265,-0.27,-0.245,-0.24,-0.225,-0.23,-0.25,-0.26,-0.265,-0.245,-0.24,-0.235,-0.23,-0.235,-0.225,-0.225,-0.23,-0.23,-0.255,-0.26,-0.25,-0.225,-0.22,-0.225,-0.24,-0.245,-0.245,-0.245,-0.225,-0.23,-0.225,-0.235,-0.23,-0.205,-0.18,-0.18,-0.185,-0.17,-0.15,-0.115,-0.08,-0.07,-0.07,-0.065,-0.045,-0.005,0.02,0.025
0.0,212.0,-0.27,-0.29,-0.295,-0.29,-0.295,-0.26,-0.255,-0.25,-0.27,-0.27,-0.26,-0.26,-0.27,-0.265,-0.27,-0.245,-0.24,-0.225,-0.23,-0.25,-0.26,-0.265,-0.245,-0.24,-0.235,-0.23,-0.235,-0.225,-0.225,-0.23,-0.23,-0.255,-0.26,-0.25,-0.225,-0.22,-0.225,-0.24,-0.245,-0.245,-0.245,-0.225,-0.23,-0.225,-0.235,-0.23,-0.205,-0.18,-0.18,-0.185,-0.17,-0.15,-0.115,-0.08,-0.07,-0.07,-0.065,-0.045,-0.005,0.02,0.025,0.03,0.025,0.025,0.04,0.045,0.03,-0.01,-0.055,-0.08,-0.11,-0.12,-0.155,-0.185,-0.225,-0.23,-0.255,-0.245,-0.255,-0.3,-0.29,-0.28,-0.275,-0.275,-0.28,-0.305,-0.335,-0.34,-0.32,-0.305,-0.285,-0.3,-0.32,-0.31,-0.305,-0.3,-0.295,-0.305,-0.3,-0.275,-0.255,-0.23,-0.225,-0.21,-0.165,-0.08,0.055,0.24,0.455,0.72,1.0,1.275,1.51,1.64,1.555,1.275,0.83,0.36,-0.035,-0.265,-0.37,-0.37,-0.32,-0.26,-0.23,-0.21,-0.215,-0.225,-0.25,-0.24,-0.24,-0.225,-0.235,-0.255,-0.25,-0.24,-0.24,-0.205,-0.205,-0.215,-0.225,-0.235,-0.225,-0.2,-0.205,-0.195,-0.195,-0.19,-0.165,-0.155,-0.17,-0.2,-0.19,-0.18,-0.185,-0.155,-0.14,-0.145,-0.16,-0.155,-0.145,-0.14,-0.13,-0.16,-0.17,-0.135,-0.125,-0.105,-0.115,-0.115,-0.14,-0.13,-0.105,-0.09,-0.07,-0.07,-0.06,-0.06,-0.045,-0.03,-0.03,-0.03,-0.03,-0.01,0.005,0.035,0.035,0.025,0.0,0.005,0.03,0.05,0.055,0.055,0.05,0.065,0.07,0.06,0.05,0.015,-0.01,0.0,-0.005,0.0,-0.01,-0.07,-0.08,-0.11,-0.12,-0.12,-0.13,-0.15,-0.175,-0.19,-0.205,-0.205,-0.23,-0.24,-0.25,-0.265,-0.24,-0.23,-0.245,-0.265,-0.29,-0.295,-0.285,-0.275,-0.27,-0.295,-0.3,-0.285,-0.265,-0.265,-0.28,-0.305,-0.31,-0.31,-0.305,-0.275,-0.27,-0.275,-0.285,-0.295,-0.285,-0.285,-0.29,-0.3,-0.315,-0.295,-0.29,-0.255,-0.265,-0.275,-0.295,-0.295,-0.275,-0.26,-0.26,-0.26,-0.275,-0.275,-0.275,-0.26,-0.265,-0.28,-0.285,-0.285,-0.26,-0.245,-0.25,-0.275,-0.285,-0.295,-0.275,-0.28,-0.285,-0.275,-0.29,-0.275,-0.275,-0.26,-0.275,-0.28,-0.29,-0.29,-0.26,-0.22,-0.185,-0.19,-0.19,-0.185,-0.175,-0.145,-0.135,-0.11,-0.1,-0.075,-0.05,-0.035
0.0,212.0,-0.27,-0.275,-0.285,-0.295,-0.285,-0.285,-0.29,-0.3,-0.315,-0.295,-0.29,-0.255,-0.265,-0.275,-0.295,-0.295,-0.275,-0.26,-0.26,-0.26,-0.275,-0.275,-0.275,-0.26,-0.265,-0.28,-0.285,-0.285,-0.26,-0.245,-0.25,-0.275,-0.285,-0.295,-0.275,-0.28,-0.285,-0.275,-0.29,-0.275,-0.275,-0.26,-0.275,-0.28,-0.29,-0.29,-0.26,-0.22,-0.185,-0.19,-0.19,-0.185,-0.175,-0.145,-0.135,-0.11,-0.1,-0.075,-0.05,-0.035,-0.03,-0.035,-0.05,-0.045,-0.04,-0.025,-0.035,-0.07,-0.11,-0.145,-0.185,-0.2,-0.245,-0.265,-0.28,-0.29,-0.29,-0.28,-0.295,-0.335,-0.355,-0.36,-0.355,-0.345,-0.355,-0.36,-0.37,-0.365,-0.355,-0.35,-0.36,-0.38,-0.385,-0.39,-0.37,-0.34,-0.335,-0.36,-0.375,-0.37,-0.345,-0.34,-0.305,-0.295,-0.245,-0.165,-0.055,0.105,0.285,0.51,0.755,1.04,1.305,1.48,1.49,1.275,0.9,0.425,0.03,-0.26,-0.405,-0.455,-0.435,-0.375,-0.3,-0.28,-0.28,-0.305,-0.325,-0.34,-0.34,-0.32,-0.32,-0.34,-0.35,-0.33,-0.325,-0.315,-0.32,-0.33,-0.325,-0.335,-0.3,-0.295,-0.29,-0.295,-0.315,-0.31,-0.31,-0.295,-0.28,-0.29,-0.29,-0.295,-0.27,-0.265,-0.27,-0.285,-0.295,-0.285,-0.255,-0.24,-0.24,-0.26,-0.27,-0.275,-0.255,-0.245,-0.245,-0.245,-0.24,-0.24,-0.21,-0.19,-0.19,-0.205,-0.215,-0.205,-0.18,-0.17,-0.155,-0.16,-0.165,-0.155,-0.14,-0.135,-0.13,-0.12,-0.125,-0.115,-0.08,-0.065,-0.065,-0.085,-0.105,-0.105,-0.085,-0.065,-0.065,-0.08,-0.09,-0.09,-0.085,-0.075,-0.11,-0.13,-0.16,-0.175,-0.18,-0.185,-0.2,-0.225,-0.25,-0.28,-0.295,-0.305,-0.31,-0.345,-0.35,-0.36,-0.345,-0.35,-0.36,-0.38,-0.4,-0.41,-0.42,-0.39,-0.395,-0.4,-0.43,-0.43,-0.425,-0.415,-0.415,-0.42,-0.425,-0.43,-0.4,-0.405,-0.42,-0.435,-0.44,-0.455,-0.45,-0.415,-0.42,-0.42,-0.425,-0.43,-0.42,-0.42,-0.405,-0.435,-0.445,-0.435,-0.395,-0.39,-0.405,-0.42,-0.435,-0.43,-0.42,-0.405,-0.41,-0.405,-0.425,-0.42,-0.425,-0.405,-0.425,-0.435,-0.455,-0.445,-0.42,-0.415,-0.42,-0.425,-0.45,-0.435,-0.455,-0.45,-0.445,-0.44,-0.45,-0.45,-0.43,-0.42,-0.43,-0.45,-0.465,-0.44,-0.435,-0.405,-0.385,-0.395,-0.395,-0.37,-0.35,-0.32
0.0,212.0,-0.43,-0.42,-0.42,-0.405,-0.435,-0.445,-0.435,-0.395,-0.39,-0.405,-0.42,-0.435,-0.43,-0.42,-0.405,-0.41,-0.405,-0.425,-0.42,-0.425,-0.405,-0.425,-0.435,-0.455,-0.445,-0.42,-0.415,-0.42,-0.425,-0.45,-0.435,-0.455,-0.45,-0.445,-0.44,-0.45,-0.45,-0.43,-0.42,-0.43,-0.45,-0.465,-0.44,-0.435,-0.405,-0.385,-0.395,-0.395,-0.37,-0.35,-0.32,-0.325,-0.31,-0.325,-0.31,-0.285,-0.25,-0.22,-0.21,-0.205,-0.205,-0.19,-0.18,-0.19,-0.2,-0.21,-0.22,-0.215,-0.225,-0.275,-0.325,-0.38,-0.395,-0.395,-0.39,-0.41,-0.44,-0.475,-0.485,-0.48,-0.475,-0.485,-0.49,-0.5,-0.505,-0.505,-0.495,-0.495,-0.53,-0.545,-0.53,-0.515,-0.49,-0.5,-0.505,-0.525,-0.515,-0.5,-0.485,-0.48,-0.495,-0.47,-0.455,-0.425,-0.37,-0.315,-0.23,-0.1,0.11,0.385,0.7,1.025,1.275,1.395,1.36,1.085,0.63,0.155,-0.24,-0.46,-0.54,-0.535,-0.505,-0.5,-0.48,-0.475,-0.475,-0.47,-0.455,-0.45,-0.455,-0.47,-0.485,-0.465,-0.455,-0.455,-0.46,-0.47,-0.475,-0.47,-0.43,-0.44,-0.445,-0.475,-0.46,-0.45,-0.425,-0.425,-0.42,-0.43,-0.425,-0.4,-0.39,-0.405,-0.41,-0.42,-0.42,-0.395,-0.37,-0.36,-0.375,-0.38,-0.38,-0.355,-0.355,-0.35,-0.355,-0.36,-0.345,-0.325,-0.315,-0.3,-0.32,-0.33,-0.32,-0.305,-0.29,-0.3,-0.275,-0.27,-0.265,-0.255,-0.235,-0.22,-0.225,-0.235,-0.205,-0.185,-0.155,-0.16,-0.16,-0.175,-0.19,-0.18,-0.16,-0.14,-0.155,-0.145,-0.15,-0.14,-0.135,-0.145,-0.165,-0.205,-0.195,-0.205,-0.19,-0.205,-0.22,-0.25,-0.27,-0.275,-0.275,-0.285,-0.31,-0.325,-0.33,-0.32,-0.32,-0.34,-0.375,-0.39,-0.395,-0.375,-0.375,-0.37,-0.375,-0.39,-0.4,-0.395,-0.38,-0.39,-0.4,-0.405,-0.4,-0.395,-0.38,-0.37,-0.395,-0.41,-0.41,-0.41,-0.395,-0.375,-0.37,-0.38,-0.37,-0.37,-0.345,-0.375,-0.38,-0.38,-0.375,-0.35,-0.33,-0.325,-0.345,-0.355,-0.355,-0.34,-0.315,-0.33,-0.33,-0.33,-0.335,-0.325,-0.305,-0.32,-0.335,-0.35,-0.34,-0.325,-0.3,-0.305,-0.32,-0.32,-0.32,-0.34,-0.33,-0.325,-0.34,-0.325,-0.32,-0.305,-0.285,-0.27,-0.275,-0.265,-0.25,-0.215,-0.195,-0.175,-0.165,-0.155,-0.145,-0.115,-0.075,-0.04,-0.045,-0.045
0.0,212.0,-0.38,-0.37,-0.395,-0.41,-0.41,-0.41,-0.395,-0.375,-0.37,-0.38,-0.37,-0.37,-0.345,-0.375,-0.38,-0.38,-0.375,-0.35,-0.33,-0.325,-0.345,-0.355,-0.355,-0.34,-0.315,-0.33,-0.33,-0.33,-0.335,-0.325,-0.305,-0.32,-0.335,-0.35,-0.34,-0.325,-0.3,-0.305,-0.32,-0.32,-0.32,-0.34,-0.33,-0.325,-0.34,-0.325,-0.32,-0.305,-0.285,-0.27,-0.275,-0.265,-0.25,-0.215,-0.195,-0.175,-0.165,-0.155,-0.145,-0.115,-0.075,-0.04,-0.045,-0.045,-0.035,-0.02,-0.035,-0.04,-0.08,-0.11,-0.135,-0.145,-0.175,-0.215,-0.245,-0.26,-0.285,-0.295,-0.285,-0.29,-0.315,-0.315,-0.335,-0.315,-0.295,-0.31,-0.345,-0.35,-0.35,-0.335,-0.32,-0.31,-0.31,-0.325,-0.34,-0.31,-0.295,-0.3,-0.295,-0.285,-0.275,-0.245,-0.215,-0.2,-0.165,-0.095,0.025,0.24,0.51,0.81,1.14,1.41,1.63,1.695,1.51,1.065,0.55,0.11,-0.175,-0.3,-0.295,-0.285,-0.255,-0.245,-0.23,-0.215,-0.2,-0.2,-0.215,-0.22,-0.22,-0.23,-0.21,-0.215,-0.21,-0.21,-0.2,-0.19,-0.165,-0.18,-0.19,-0.185,-0.18,-0.17,-0.13,-0.12,-0.135,-0.15,-0.145,-0.12,-0.11,-0.095,-0.095,-0.105,-0.095,-0.07,-0.05,-0.055,-0.08,-0.085,-0.075,-0.06,-0.025,-0.02,-0.025,-0.035,-0.045,-0.035,-0.01,-0.01,-0.01,0.005,0.005,0.025,0.055,0.045,0.055,0.06,0.075,0.11,0.125,0.145,0.14,0.14,0.145,0.16,0.18,0.195,0.185,0.19,0.17,0.19,0.18,0.17,0.15,0.14,0.125,0.13,0.14,0.115,0.085,0.04,0.02,0.01,0.005,0.005,-0.01,-0.035,-0.045,-0.05,-0.06,-0.07,-0.09,-0.1,-0.09,-0.08,-0.065,-0.09,-0.1,-0.135,-0.125,-0.115,-0.095,-0.09,-0.095,-0.105,-0.095,-0.11,-0.09,-0.1,-0.105,-0.12,-0.115,-0.085,-0.07,-0.075,-0.085,-0.105,-0.105,-0.075,-0.065,-0.04,-0.07,-0.08,-0.075,-0.05,-0.065,-0.07,-0.065,-0.06,-0.06,-0.035,-0.025,-0.03,-0.04,-0.06,-0.065,-0.055,-0.03,-0.03,-0.035,-0.03,-0.03,-0.05,-0.03,-0.035,-0.055,-0.07,-0.055,-0.035,-0.02,-0.025,-0.04,-0.055,-0.06,-0.04,-0.035,-0.015,-0.01,0.015,0.04,0.06,0.08,0.085,0.085,0.085,0.13,0.165,0.2,0.22,0.225,0.205,0.2,0.215,0.235,0.22,0.215,0.175,0.145,0.125
0.0,212.0,-0.11,-0.09,-0.1,-0.105,-0.12,-0.115,-0.085,-0.07,-0.075,-0.085,-0.105,-0.105,-0.075,-0.065,-0.04,-0.07,-0.08,-0.075,-0.05,-0.065,-0.07,-0.065,-0.06,-0.06,-0.035,-0.025,-0.03,-0.04,-0.06,-0.065,-0.055,-0.03,-0.03,-0.035,-0.03,-0.03,-0.05,-0.03,-0.035,-0.055,-0.07,-0.055,-0.035,-0.02,-0.025,-0.04,-0.055,-0.06,-0.04,-0.035,-0.015,-0.01,0.015,0.04,0.06,0.08,0.085,0.085,0.085,0.13,0.165,0.2,0.22,0.225,0.205,0.2,0.215,0.235,0.22,0.215,0.175,0.145,0.125,0.085,0.035,0.0,-0.045,-0.035,-0.025,-0.02,-0.035,-0.065,-0.085,-0.1,-0.085,-0.08,-0.07,-0.095,-0.1,-0.115,-0.11,-0.105,-0.11,-0.12,-0.12,-0.11,-0.085,-0.065,-0.085,-0.085,-0.095,-0.08,-0.045,-0.01,0.025,0.07,0.155,0.315,0.53,0.77,1.06,1.375,1.635,1.795,1.8,1.53,1.065,0.53,0.1,-0.125,-0.175,-0.105,-0.025,-0.015,-0.005,-0.015,-0.03,-0.015,-0.03,-0.025,-0.05,-0.04,-0.025,-0.02,-0.04,-0.05,-0.065,-0.055,-0.02,-0.01,-0.01,-0.015,-0.02,-0.045,-0.035,-0.015,-0.025,-0.005,-0.02,-0.015,0.0,0.025,0.015,-0.005,-0.005,0.005,0.01,0.04,0.025,0.01,0.005,0.02,0.025,0.05,0.05,0.06,0.06,0.065,0.085,0.095,0.105,0.095,0.085,0.1,0.13,0.145,0.16,0.155,0.155,0.155,0.165,0.195,0.205,0.21,0.215,0.235,0.25,0.265,0.24,0.24,0.25,0.235,0.26,0.285,0.27,0.245,0.22,0.21,0.185,0.19,0.18,0.16,0.14,0.11,0.095,0.075,0.06,0.025,0.025,0.01,0.01,0.01,-0.01,-0.03,-0.055,-0.06,-0.045,-0.02,-0.03,-0.05,-0.065,-0.08,-0.07,-0.055,-0.055,-0.075,-0.07,-0.085,-0.075,-0.065,-0.065,-0.085,-0.095,-0.1,-0.065,-0.04,-0.04,-0.05,-0.07,-0.06,-0.065,-0.035,-0.055,-0.05,-0.055,-0.05,-0.025,-0.03,-0.025,-0.04,-0.045,-0.04,-0.02,-0.02,-0.025,-0.05,-0.06,-0.055,-0.065,-0.03,-0.045,-0.035,-0.05,-0.045,-0.04,-0.035,-0.05,-0.065,-0.075,-0.06,-0.03,-0.02,-0.03,-0.045,-0.065,-0.06,-0.05,-0.025,-0.02,-0.01,-0.025,-0.04,-0.005,0.03,0.065,0.075,0.085,0.1,0.115,0.14,0.14,0.145,0.155,0.18,0.215,0.25,0.245,0.225,0.215,0.195
0.0,212.0,-0.065,-0.085,-0.095,-0.1,-0.065,-0.04,-0.04,-0.05,-0.07,-0.06,-0.065,-0.035,-0.055,-0.05,-0.055,-0.05,-0.025,-0.03,-0.025,-0.04,-0.045,-0.04,-0.02,-0.02,-0.025,-0.05,-0.06,-0.055,-0.065,-0.03,-0.045,-0.035,-0.05,-0.045,-0.04,-0.035,-0.05,-0.065,-0.075,-0.06,-0.03,-0.02,-0.03,-0.045,-0.065,-0.06,-0.05,-0.025,-0.02,-0.01,-0.025,-0.04,-0.005,0.03,0.065,0.075,0.085,0.1,0.115,0.14,0.14,0.145,0.155,0.18,0.215,0.25,0.245,0.225,0.215,0.195,0.195,0.185,0.155,0.095,0.06,0.015,-0.005,-0.02,-0.04,-0.08,-0.11,-0.11,-0.115,-0.12,-0.115,-0.125,-0.14,-0.15,-0.155,-0.145,-0.13,-0.14,-0.17,-0.15,-0.145,-0.145,-0.145,-0.155,-0.155,-0.135,-0.12,-0.1,-0.085,-0.075,-0.085,-0.05,0.04,0.18,0.365,0.615,0.92,1.26,1.58,1.765,1.71,1.34,0.79,0.285,-0.055,-0.19,-0.215,-0.175,-0.13,-0.095,-0.07,-0.085,-0.095,-0.12,-0.12,-0.125,-0.12,-0.11,-0.12,-0.13,-0.125,-0.125,-0.125,-0.105,-0.105,-0.115,-0.135,-0.135,-0.11,-0.08,-0.1,-0.11,-0.13,-0.125,-0.11,-0.08,-0.085,-0.07,-0.07,-0.075,-0.08,-0.065,-0.075,-0.08,-0.085,-0.075,-0.06,-0.04,-0.04,-0.04,-0.065,-0.06,-0.05,-0.025,-0.005,-0.015,-0.03,-0.02,0.005,0.025,0.025,0.005,0.0,0.015,0.06,0.085,0.075,0.085,0.065,0.06,0.085,0.095,0.105,0.115,0.11,0.1,0.105,0.105,0.1,0.08,0.06,0.07,0.06,0.06,0.04,0.015,-0.025,-0.04,-0.04,-0.04,-0.06,-0.07,-0.085,-0.11,-0.125,-0.12,-0.15,-0.175,-0.19,-0.185,-0.19,-0.165,-0.175,-0.195,-0.22,-0.22,-0.215,-0.2,-0.2,-0.205,-0.24,-0.22,-0.215,-0.225,-0.215,-0.215,-0.22,-0.215,-0.195,-0.195,-0.2,-0.23,-0.235,-0.23,-0.22,-0.2,-0.195,-0.21,-0.22,-0.22,-0.21,-0.2,-0.205,-0.215,-0.21,-0.2,-0.185,-0.17,-0.2,-0.215,-0.215,-0.215,-0.21,-0.19,-0.18,-0.195,-0.205,-0.21,-0.205,-0.2,-0.205,-0.22,-0.225,-0.205,-0.195,-0.185,-0.2,-0.205,-0.24,-0.205,-0.15,-0.125,-0.1,-0.1,-0.115,-0.09,-0.07,-0.045,-0.035,-0.015,0.0,0.025,0.035,0.045,0.035,0.03,-0.005,-0.01,-0.01,-0.01,-0.035,-0.085,-0.145,-0.18,-0.21,-0.215
0.0,212.0,-0.205,-0.24,-0.22,-0.215,-0.225,-0.215,-0.215,-0.22,-0.215,-0.195,-0.195,-0.2,-0.23,-0.235,-0.23,-0.22,-0.2,-0.195,-0.21,-0.22,-0.22,-0.21,-0.2,-0.205,-0.215,-0.21,-0.2,-0.185,-0.17,-0.2,-0.215,-0.215,-0.215,-0.21,-0.19,-0.18,-0.195,-0.205,-0.21,-0.205,-0.2,-0.205,-0.22,-0.225,-0.205,-0.195,-0.185,-0.2,-0.205,-0.24,-0.205,-0.15,-0.125,-0.1,-0.1,-0.115,-0.09,-0.07,-0.045,-0.035,-0.015,0.0,0.025,0.035,0.045,0.035,0.03,-0.005,-0.01,-0.01,-0.01,-0.035,-0.085,-0.145,-0.18,-0.21,-0.215,-0.255,-0.26,-0.27,-0.28,-0.26,-0.275,-0.27,-0.31,-0.32,-0.315,-0.32,-0.305,-0.305,-0.305,-0.33,-0.345,-0.35,-0.305,-0.335,-0.325,-0.33,-0.325,-0.305,-0.275,-0.27,-0.285,-0.3,-0.27,-0.215,-0.12,0.03,0.225,0.47,0.78,1.11,1.395,1.55,1.535,1.29,0.855,0.39,0.05,-0.205,-0.335,-0.375,-0.38,-0.355,-0.305,-0.265,-0.29,-0.29,-0.31,-0.29,-0.285,-0.295,-0.315,-0.32,-0.315,-0.285,-0.28,-0.285,-0.3,-0.315,-0.3,-0.29,-0.275,-0.275,-0.275,-0.28,-0.285,-0.28,-0.285,-0.27,-0.275,-0.275,-0.255,-0.23,-0.21,-0.22,-0.245,-0.25,-0.26,-0.215,-0.195,-0.2,-0.2,-0.2,-0.205,-0.195,-0.19,-0.18,-0.17,-0.17,-0.175,-0.13,-0.11,-0.125,-0.125,-0.13,-0.105,-0.08,-0.05,-0.04,-0.035,-0.055,-0.055,-0.045,-0.015,0.005,0.0,-0.005,-0.005,0.025,0.03,0.02,-0.005,-0.01,0.0,0.005,0.025,0.01,-0.02,-0.06,-0.065,-0.08,-0.07,-0.09,-0.1,-0.125,-0.15,-0.16,-0.17,-0.185,-0.205,-0.235,-0.215,-0.21,-0.205,-0.21,-0.25,-0.275,-0.26,-0.245,-0.235,-0.25,-0.255,-0.26,-0.245,-0.235,-0.245,-0.26,-0.265,-0.275,-0.27,-0.25,-0.245,-0.235,-0.24,-0.255,-0.25,-0.235,-0.22,-0.22,-0.225,-0.225,-0.22,-0.215,-0.21,-0.235,-0.225,-0.23,-0.21,-0.21,-0.19,-0.185,-0.195,-0.215,-0.225,-0.215,-0.205,-0.195,-0.215,-0.225,-0.215,-0.19,-0.185,-0.2,-0.225,-0.235,-0.23,-0.205,-0.2,-0.18,-0.205,-0.215,-0.21,-0.2,-0.175,-0.175,-0.17,-0.15,-0.125,-0.095,-0.07,-0.085,-0.085,-0.1,-0.08,-0.03,0.0,0.035,0.055,0.045,0.04,0.045,0.075,0.055,0.035,0.02,0.015,0.01,-0.005,-0.05
0.0,212.0,-0.275,-0.27,-0.25,-0.245,-0.235,-0.24,-0.255,-0.25,-0.235,-0.22,-0.22,-0.225,-0.225,-0.22,-0.215,-0.21,-0.235,-0.225,-0.23,-0.21,-0.21,-0.19,-0.185,-0.195,-0.215,-0.225,-0.215,-0.205,-0.195,-0.215,-0.225,-0.215,-0.19,-0.185,-0.2,-0.225,-0.235,-0.23,-0.205,-0.2,-0.18,-0.205,-0.215,-0.21,-0.2,-0.175,-0.175,-0.17,-0.15,-0.125,-0.095,-0.07,-0.085,-0.085,-0.1,-0.08,-0.03,0.0,0.035,0.055,0.045,0.04,0.045,0.075,0.055,0.035,0.02,0.015,0.01,-0.005,-0.05,-0.11,-0.155,-0.18,-0.175,-0.165,-0.185,-0.2,-0.205,-0.245,-0.24,-0.21,-0.225,-0.24,-0.255,-0.25,-0.25,-0.235,-0.235,-0.255,-0.26,-0.26,-0.27,-0.245,-0.24,-0.24,-0.245,-0.235,-0.235,-0.21,-0.205,-0.215,-0.205,-0.17,-0.095,0.005,0.125,0.305,0.55,0.865,1.175,1.475,1.71,1.79,1.64,1.28,0.805,0.325,-0.04,-0.265,-0.32,-0.265,-0.205,-0.145,-0.12,-0.155,-0.165,-0.19,-0.2,-0.19,-0.205,-0.22,-0.225,-0.205,-0.18,-0.175,-0.19,-0.2,-0.215,-0.22,-0.215,-0.17,-0.165,-0.175,-0.185,-0.175,-0.17,-0.165,-0.175,-0.18,-0.18,-0.16,-0.145,-0.125,-0.13,-0.145,-0.16,-0.155,-0.145,-0.13,-0.115,-0.125,-0.12,-0.125,-0.095,-0.1,-0.11,-0.12,-0.125,-0.115,-0.09,-0.065,-0.06,-0.07,-0.09,-0.07,-0.06,-0.04,-0.025,-0.03,-0.025,-0.02,0.005,0.02,0.025,0.025,0.03,0.02,0.045,0.08,0.09,0.08,0.065,0.065,0.075,0.075,0.085,0.08,0.07,0.08,0.065,0.075,0.07,0.05,0.015,0.01,0.0,0.0,-0.01,-0.035,-0.065,-0.09,-0.105,-0.1,-0.12,-0.14,-0.14,-0.155,-0.15,-0.155,-0.17,-0.195,-0.2,-0.2,-0.185,-0.195,-0.17,-0.185,-0.175,-0.19,-0.175,-0.175,-0.175,-0.18,-0.19,-0.195,-0.18,-0.165,-0.155,-0.185,-0.2,-0.195,-0.19,-0.165,-0.17,-0.165,-0.18,-0.18,-0.17,-0.16,-0.17,-0.165,-0.165,-0.16,-0.145,-0.135,-0.14,-0.165,-0.18,-0.16,-0.135,-0.12,-0.125,-0.135,-0.15,-0.155,-0.15,-0.13,-0.13,-0.145,-0.145,-0.145,-0.14,-0.13,-0.135,-0.15,-0.15,-0.15,-0.135,-0.105,-0.11,-0.12,-0.135,-0.14,-0.14,-0.12,-0.12,-0.11,-0.1,-0.065,-0.04,-0.005,0.005,-0.02,-0.025,0.005,0.04,0.08,0.1,0.1
0.0,212.0,-0.2,-0.195,-0.19,-0.165,-0.17,-0.165,-0.18,-0.18,-0.17,-0.16,-0.17,-0.165,-0.165,-0.16,-0.145,-0.135,-0.14,-0.165,-0.18,-0.16,-0.135,-0.12,-0.125,-0.135,-0.15,-0.155,-0.15,-0.13,-0.13,-0.145,-0.145,-0.145,-0.14,-0.13,-0.135,-0.15,-0.15,-0.15,-0.135,-0.105,-0.11,-0.12,-0.135,-0.14,-0.14,-0.12,-0.12,-0.11,-0.1,-0.065,-0.04,-0.005,0.005,-0.02,-0.025,0.005,0.04,0.08,0.1,0.1,0.105,0.125,0.11,0.12,0.13,0.11,0.095,0.08,0.095,0.08,0.02,-0.02,-0.075,-0.1,-0.105,-0.09,-0.115,-0.135,-0.165,-0.16,-0.17,-0.16,-0.175,-0.19,-0.2,-0.19,-0.18,-0.18,-0.185,-0.195,-0.21,-0.225,-0.205,-0.185,-0.18,-0.175,-0.18,-0.17,-0.15,-0.15,-0.15,-0.155,-0.14,-0.115,-0.055,0.015,0.12,0.245,0.45,0.695,1.0,1.325,1.625,1.8,1.82,1.625,1.225,0.74,0.245,-0.1,-0.27,-0.245,-0.16,-0.065,-0.05,-0.06,-0.08,-0.105,-0.12,-0.105,-0.115,-0.12,-0.15,-0.145,-0.12,-0.105,-0.115,-0.145,-0.145,-0.14,-0.13,-0.105,-0.095,-0.1,-0.12,-0.11,-0.11,-0.095,-0.095,-0.115,-0.12,-0.11,-0.085,-0.065,-0.075,-0.09,-0.1,-0.09,-0.07,-0.065,-0.05,-0.055,-0.07,-0.065,-0.055,-0.03,-0.04,-0.055,-0.06,-0.05,-0.015,0.02,0.01,-0.015,-0.02,-0.02,0.0,0.01,0.04,0.035,0.025,0.03,0.065,0.09,0.085,0.08,0.08,0.08,0.1,0.14,0.155,0.145,0.13,0.145,0.15,0.17,0.17,0.17,0.15,0.16,0.185,0.19,0.17,0.165,0.14,0.1,0.115,0.11,0.105,0.075,0.055,0.04,0.035,0.035,0.02,-0.02,-0.03,-0.04,-0.03,-0.025,-0.035,-0.065,-0.085,-0.085,-0.08,-0.07,-0.075,-0.09,-0.1,-0.085,-0.08,-0.075,-0.095,-0.115,-0.115,-0.11,-0.115,-0.08,-0.09,-0.09,-0.1,-0.095,-0.085,-0.075,-0.075,-0.09,-0.105,-0.09,-0.075,-0.065,-0.055,-0.065,-0.08,-0.095,-0.08,-0.065,-0.06,-0.07,-0.06,-0.06,-0.045,-0.04,-0.05,-0.055,-0.09,-0.07,-0.05,-0.02,-0.015,-0.03,-0.05,-0.05,-0.04,-0.04,-0.055,-0.065,-0.06,-0.045,-0.025,-0.005,-0.02,-0.04,-0.06,-0.06,-0.055,-0.04,-0.025,-0.035,-0.035,-0.04,-0.035,-0.015,-0.025,-0.05,-0.045,-0.045,-0.03,-0.02,0.0,-0.015
0.0,212.0,-0.06,-0.07,-0.06,-0.06,-0.045,-0.04,-0.05,-0.055,-0.09,-0.07,-0.05,-0.02,-0.015,-0.03,-0.05,-0.05,-0.04,-0.04,-0.055,-0.065,-0.06,-0.045,-0.025,-0.005,-0.02,-0.04,-0.06,-0.06,-0.055,-0.04,-0.025,-0.035,-0.035,-0.04,-0.035,-0.015,-0.025,-0.05,-0.045,-0.045,-0.03,-0.02,0.0,-0.015,-0.025,-0.02,0.005,0.035,0.06,0.08,0.085,0.095,0.12,0.135,0.125,0.145,0.155,0.175,0.21,0.25,0.255,0.23,0.225,0.215,0.225,0.22,0.205,0.17,0.14,0.12,0.09,0.08,0.05,0.015,-0.025,-0.045,-0.045,-0.03,-0.04,-0.05,-0.06,-0.075,-0.07,-0.07,-0.08,-0.095,-0.115,-0.105,-0.095,-0.075,-0.08,-0.095,-0.1,-0.095,-0.09,-0.065,-0.075,-0.065,-0.075,-0.08,-0.05,-0.035,-0.02,0.005,0.015,0.05,0.15,0.285,0.475,0.69,0.97,1.29,1.57,1.76,1.73,1.48,1.075,0.61,0.23,0.005,-0.11,-0.115,-0.095,-0.06,-0.02,0.005,-0.005,-0.025,-0.055,-0.055,-0.05,-0.055,-0.06,-0.07,-0.07,-0.06,-0.035,-0.02,-0.025,-0.05,-0.06,-0.06,-0.035,-0.025,-0.025,-0.01,0.0,0.0,0.015,0.02,-0.005,-0.005,-0.01,0.0,0.025,0.05,0.045,0.035,0.015,0.015,0.015,0.04,0.035,0.035,0.035,0.045,0.06,0.065,0.065,0.065,0.065,0.045,0.075,0.095,0.105,0.12,0.085,0.1,0.11,0.125,0.13,0.14,0.145,0.16,0.185,0.205,0.195,0.19,0.17,0.185,0.21,0.235,0.245,0.225,0.225,0.23,0.23,0.24,0.235,0.225,0.215,0.22,0.22,0.23,0.215,0.18,0.16,0.145,0.135,0.14,0.125,0.095,0.075,0.045,0.045,0.05,0.015,0.01,-0.01,-0.015,-0.015,0.0,-0.015,-0.025,-0.045,-0.055,-0.045,-0.05,-0.055,-0.055,-0.07,-0.06,-0.065,-0.045,-0.05,-0.07,-0.1,-0.08,-0.065,-0.05,-0.04,-0.06,-0.065,-0.075,-0.07,-0.055,-0.055,-0.06,-0.07,-0.06,-0.04,-0.025,-0.04,-0.06,-0.065,-0.055,-0.055,-0.045,-0.04,-0.05,-0.05,-0.045,-0.035,-0.035,-0.045,-0.055,-0.055,-0.05,-0.045,-0.02,-0.025,-0.03,-0.045,-0.065,-0.055,-0.055,-0.05,-0.065,-0.065,-0.065,-0.055,-0.04,-0.055,-0.06,-0.08,-0.09,-0.07,-0.055,-0.06,-0.07,-0.075,-0.075,-0.06,-0.06,-0.06,-0.06,-0.05,-0.02,0.015,0.055
0.0,212.0,-0.025,-0.04,-0.06,-0.065,-0.055,-0.055,-0.045,-0.04,-0.05,-0.05,-0.045,-0.035,-0.035,-0.045,-0.055,-0.055,-0.05,-0.045,-0.02,-0.025,-0.03,-0.045,-0.065,-0.055,-0.055,-0.05,-0.065,-0.065,-0.065,-0.055,-0.04,-0.055,-0.06,-0.08,-0.09,-0.07,-0.055,-0.06,-0.07,-0.075,-0.075,-0.06,-0.06,-0.06,-0.06,-0.05,-0.02,0.015,0.055,0.055,0.06,0.045,0.06,0.075,0.12,0.135,0.15,0.16,0.185,0.195,0.21,0.2,0.16,0.14,0.145,0.155,0.145,0.115,0.075,0.015,-0.02,-0.05,-0.045,-0.07,-0.08,-0.09,-0.1,-0.105,-0.095,-0.1,-0.125,-0.15,-0.165,-0.165,-0.145,-0.15,-0.16,-0.165,-0.165,-0.16,-0.155,-0.17,-0.185,-0.195,-0.185,-0.165,-0.155,-0.15,-0.155,-0.175,-0.165,-0.15,-0.115,-0.085,-0.045,0.015,0.125,0.295,0.52,0.765,1.03,1.285,1.505,1.62,1.56,1.255,0.81,0.375,0.06,-0.13,-0.19,-0.21,-0.21,-0.21,-0.175,-0.135,-0.11,-0.125,-0.135,-0.17,-0.17,-0.16,-0.15,-0.15,-0.155,-0.16,-0.16,-0.155,-0.14,-0.15,-0.165,-0.17,-0.175,-0.16,-0.13,-0.115,-0.13,-0.145,-0.13,-0.14,-0.125,-0.125,-0.13,-0.145,-0.125,-0.105,-0.085,-0.1,-0.11,-0.125,-0.13,-0.125,-0.09,-0.1,-0.085,-0.1,-0.095,-0.09,-0.085,-0.095,-0.09,-0.1,-0.08,-0.07,-0.04,-0.05,-0.045,-0.04,-0.05,-0.035,-0.02,-0.015,-0.01,-0.015,-0.015,0.02,0.035,0.035,0.035,0.015,0.03,0.045,0.085,0.07,0.065,0.055,0.05,0.06,0.07,0.07,0.06,0.055,0.04,0.065,0.06,0.05,0.025,-0.01,-0.02,-0.015,-0.005,-0.025,-0.045,-0.08,-0.11,-0.12,-0.125,-0.155,-0.155,-0.175,-0.18,-0.17,-0.155,-0.18,-0.21,-0.21,-0.215,-0.22,-0.205,-0.195,-0.215,-0.22,-0.215,-0.205,-0.21,-0.21,-0.235,-0.23,-0.23,-0.22,-0.19,-0.2,-0.215,-0.24,-0.24,-0.23,-0.2,-0.21,-0.215,-0.225,-0.215,-0.2,-0.19,-0.22,-0.24,-0.245,-0.245,-0.22,-0.195,-0.175,-0.195,-0.21,-0.215,-0.215,-0.195,-0.195,-0.215,-0.215,-0.21,-0.195,-0.195,-0.195,-0.23,-0.24,-0.23,-0.22,-0.205,-0.195,-0.2,-0.2,-0.18,-0.17,-0.12,-0.115,-0.11,-0.11,-0.095,-0.065,-0.04,-0.025,-0.025,-0.03,-0.015,0.025,0.03,0.04,0.025,0.0,-0.02,-0.025
0.0,212.0,-0.22,-0.215,-0.205,-0.21,-0.21,-0.235,-0.23,-0.23,-0.22,-0.19,-0.2,-0.215,-0.24,-0.24,-0.23,-0.2,-0.21,-0.215,-0.225,-0.215,-0.2,-0.19,-0.22,-0.24,-0.245,-0.245,-0.22,-0.195,-0.175,-0.195,-0.21,-0.215,-0.215,-0.195,-0.195,-0.215,-0.215,-0.21,-0.195,-0.195,-0.195,-0.23,-0.24,-0.23,-0.22,-0.205,-0.195,-0.2,-0.2,-0.18,-0.17,-0.12,-0.115,-0.11,-0.11,-0.095,-0.065,-0.04,-0.025,-0.025,-0.03,-0.015,0.025,0.03,0.04,0.025,0.0,-0.02,-0.025,-0.045,-0.085,-0.11,-0.155,-0.195,-0.205,-0.215,-0.225,-0.245,-0.275,-0.29,-0.295,-0.265,-0.26,-0.28,-0.305,-0.3,-0.305,-0.31,-0.31,-0.325,-0.325,-0.33,-0.32,-0.31,-0.31,-0.325,-0.33,-0.32,-0.315,-0.29,-0.285,-0.27,-0.275,-0.265,-0.24,-0.185,-0.13,-0.03,0.145,0.395,0.705,1.01,1.29,1.455,1.465,1.22,0.815,0.37,0.015,-0.22,-0.32,-0.32,-0.31,-0.305,-0.275,-0.26,-0.265,-0.28,-0.26,-0.23,-0.24,-0.255,-0.275,-0.275,-0.27,-0.255,-0.255,-0.25,-0.255,-0.25,-0.24,-0.22,-0.23,-0.25,-0.245,-0.26,-0.235,-0.2,-0.195,-0.2,-0.225,-0.23,-0.2,-0.2,-0.175,-0.18,-0.19,-0.17,-0.16,-0.155,-0.165,-0.175,-0.175,-0.16,-0.14,-0.11,-0.12,-0.125,-0.14,-0.135,-0.115,-0.09,-0.08,-0.095,-0.095,-0.07,-0.065,-0.055,-0.045,-0.05,-0.06,-0.035,-0.015,0.015,0.02,0.01,-0.015,0.02,0.035,0.05,0.035,0.045,0.045,0.04,0.07,0.075,0.065,0.055,0.035,0.045,0.04,0.055,0.04,0.015,-0.015,-0.025,-0.04,-0.04,-0.03,-0.07,-0.1,-0.11,-0.1,-0.095,-0.115,-0.145,-0.175,-0.175,-0.18,-0.165,-0.155,-0.175,-0.195,-0.205,-0.2,-0.185,-0.2,-0.22,-0.205,-0.185,-0.165,-0.15,-0.175,-0.185,-0.2,-0.195,-0.19,-0.145,-0.145,-0.165,-0.17,-0.16,-0.155,-0.145,-0.16,-0.155,-0.16,-0.145,-0.11,-0.105,-0.125,-0.125,-0.15,-0.14,-0.145,-0.11,-0.1,-0.105,-0.12,-0.125,-0.11,-0.095,-0.105,-0.105,-0.12,-0.105,-0.095,-0.075,-0.07,-0.105,-0.13,-0.12,-0.085,-0.055,-0.045,-0.025,-0.03,-0.005,0.015,0.035,0.035,0.05,0.04,0.08,0.125,0.18,0.165,0.145,0.13,0.13,0.14,0.15,0.145,0.115,0.075,0.045,0.005,-0.015,-0.05,-0.085
0.0,212.0,-0.185,-0.2,-0.22,-0.205,-0.185,-0.165,-0.15,-0.175,-0.185,-0.2,-0.195,-0.19,-0.145,-0.145,-0.165,-0.17,-0.16,-0.155,-0.145,-0.16,-0.155,-0.16,-0.145,-0.11,-0.105,-0.125,-0.125,-0.15,-0.14,-0.145,-0.11,-0.1,-0.105,-0.12,-0.125,-0.11,-0.095,-0.105,-0.105,-0.12,-0.105,-0.095,-0.075,-0.07,-0.105,-0.13,-0.12,-0.085,-0.055,-0.045,-0.025,-0.03,-0.005,0.015,0.035,0.035,0.05,0.04,0.08,0.125,0.18,0.165,0.145,0.13,0.13,0.14,0.15,0.145,0.115,0.075,0.045,0.005,-0.015,-0.05,-0.085,-0.115,-0.11,-0.11,-0.13,-0.15,-0.155,-0.165,-0.17,-0.175,-0.17,-0.165,-0.18,-0.18,-0.18,-0.17,-0.18,-0.175,-0.185,-0.19,-0.185,-0.16,-0.145,-0.145,-0.17,-0.185,-0.185,-0.155,-0.115,-0.105,-0.075,-0.01,0.075,0.235,0.45,0.715,1.005,1.29,1.545,1.685,1.61,1.27,0.79,0.33,-0.035,-0.215,-0.245,-0.185,-0.145,-0.125,-0.095,-0.095,-0.1,-0.105,-0.125,-0.135,-0.13,-0.11,-0.09,-0.1,-0.12,-0.13,-0.14,-0.12,-0.09,-0.08,-0.075,-0.085,-0.085,-0.08,-0.09,-0.09,-0.09,-0.085,-0.08,-0.05,-0.045,-0.035,-0.055,-0.07,-0.07,-0.06,-0.02,-0.025,-0.035,-0.05,-0.055,-0.04,-0.025,-0.035,-0.025,-0.03,-0.015,0.005,0.02,0.02,0.02,0.02,0.02,0.045,0.07,0.08,0.08,0.07,0.07,0.09,0.115,0.13,0.13,0.14,0.135,0.155,0.175,0.165,0.16,0.14,0.145,0.17,0.185,0.17,0.155,0.125,0.115,0.125,0.115,0.095,0.08,0.05,0.04,0.035,0.025,-0.01,-0.035,-0.065,-0.07,-0.06,-0.06,-0.08,-0.105,-0.135,-0.135,-0.13,-0.125,-0.125,-0.115,-0.125,-0.125,-0.13,-0.125,-0.145,-0.15,-0.145,-0.15,-0.12,-0.11,-0.125,-0.145,-0.185,-0.155,-0.15,-0.125,-0.1,-0.125,-0.14,-0.145,-0.125,-0.105,-0.095,-0.095,-0.1,-0.1,-0.09,-0.09,-0.09,-0.11,-0.125,-0.11,-0.1,-0.075,-0.075,-0.095,-0.11,-0.13,-0.115,-0.1,-0.11,-0.105,-0.115,-0.105,-0.11,-0.105,-0.11,-0.12,-0.125,-0.105,-0.07,-0.04,-0.02,-0.025,-0.025,-0.01,0.01,0.04,0.055,0.06,0.08,0.115,0.135,0.16,0.15,0.15,0.12,0.135,0.15,0.14,0.105,0.05,-0.005,-0.055,-0.07,-0.08,-0.08,-0.09,-0.11,-0.135,-0.135
0.0,212.0,-0.125,-0.125,-0.13,-0.125,-0.145,-0.15,-0.145,-0.15,-0.12,-0.11,-0.125,-0.145,-0.185,-0.155,-0.15,-0.125,-0.1,-0.125,-0.14,-0.145,-0.125,-0.105,-0.095,-0.095,-0.1,-0.1,-0.09,-0.09,-0.09,-0.11,-0.125,-0.11,-0.1,-0.075,-0.075,-0.095,-0.11,-0.13,-0.115,-0.1,-0.11,-0.105,-0.115,-0.105,-0.11,-0.105,-0.11,-0.12,-0.125,-0.105,-0.07,-0.04,-0.02,-0.025,-0.025,-0.01,0.01,0.04,0.055,0.06,0.08,0.115,0.135,0.16,0.15,0.15,0.12,0.135,0.15,0.14,0.105,0.05,-0.005,-0.055,-0.07,-0.08,-0.08,-0.09,-0.11,-0.135,-0.135,-0.15,-0.165,-0.185,-0.21,-0.195,-0.17,-0.175,-0.175,-0.205,-0.22,-0.23,-0.195,-0.18,-0.175,-0.18,-0.185,-0.18,-0.17,-0.17,-0.16,-0.155,-0.17,-0.125,-0.07,0.01,0.095,0.225,0.42,0.68,0.99,1.31,1.56,1.69,1.58,1.225,0.76,0.315,-0.05,-0.25,-0.27,-0.215,-0.15,-0.1,-0.1,-0.125,-0.155,-0.155,-0.135,-0.11,-0.105,-0.13,-0.15,-0.165,-0.135,-0.13,-0.13,-0.135,-0.145,-0.135,-0.12,-0.095,-0.09,-0.11,-0.125,-0.125,-0.1,-0.085,-0.095,-0.09,-0.095,-0.095,-0.08,-0.075,-0.065,-0.065,-0.075,-0.065,-0.06,-0.04,-0.055,-0.04,-0.06,-0.06,-0.055,-0.025,-0.01,-0.01,-0.02,-0.025,-0.005,0.02,0.025,0.025,0.03,0.035,0.065,0.055,0.065,0.055,0.055,0.075,0.1,0.13,0.125,0.13,0.105,0.11,0.125,0.14,0.14,0.125,0.12,0.135,0.13,0.125,0.105,0.085,0.07,0.055,0.065,0.07,0.06,0.02,-0.015,-0.04,-0.04,-0.055,-0.06,-0.085,-0.105,-0.11,-0.11,-0.14,-0.14,-0.155,-0.165,-0.185,-0.165,-0.15,-0.15,-0.175,-0.195,-0.205,-0.195,-0.17,-0.18,-0.18,-0.21,-0.19,-0.175,-0.165,-0.18,-0.185,-0.195,-0.21,-0.185,-0.155,-0.155,-0.17,-0.2,-0.19,-0.185,-0.175,-0.19,-0.195,-0.185,-0.185,-0.18,-0.185,-0.2,-0.205,-0.205,-0.18,-0.175,-0.16,-0.16,-0.19,-0.195,-0.2,-0.2,-0.18,-0.18,-0.18,-0.205,-0.195,-0.195,-0.185,-0.185,-0.21,-0.2,-0.195,-0.17,-0.15,-0.145,-0.145,-0.13,-0.12,-0.1,-0.075,-0.08,-0.06,-0.05,-0.03,0.0,0.015,0.015,0.015,0.0,0.03,0.035,0.04,0.02,-0.025,-0.08,-0.105,-0.14,-0.155,-0.175,-0.2
0.0,212.0,-0.205,-0.195,-0.17,-0.18,-0.18,-0.21,-0.19,-0.175,-0.165,-0.18,-0.185,-0.195,-0.21,-0.185,-0.155,-0.155,-0.17,-0.2,-0.19,-0.185,-0.175,-0.19,-0.195,-0.185,-0.185,-0.18,-0.185,-0.2,-0.205,-0.205,-0.18,-0.175,-0.16,-0.16,-0.19,-0.195,-0.2,-0.2,-0.18,-0.18,-0.18,-0.205,-0.195,-0.195,-0.185,-0.185,-0.21,-0.2,-0.195,-0.17,-0.15,-0.145,-0.145,-0.13,-0.12,-0.1,-0.075,-0.08,-0.06,-0.05,-0.03,0.0,0.015,0.015,0.015,0.0,0.03,0.035,0.04,0.02,-0.025,-0.08,-0.105,-0.14,-0.155,-0.175,-0.2,-0.23,-0.25,-0.255,-0.27,-0.285,-0.31,-0.305,-0.31,-0.305,-0.305,-0.305,-0.325,-0.345,-0.37,-0.35,-0.34,-0.335,-0.335,-0.335,-0.32,-0.325,-0.3,-0.32,-0.32,-0.315,-0.3,-0.265,-0.21,-0.16,-0.105,0.02,0.215,0.485,0.78,1.08,1.31,1.415,1.355,1.08,0.64,0.17,-0.19,-0.375,-0.4,-0.38,-0.355,-0.345,-0.335,-0.32,-0.34,-0.34,-0.33,-0.315,-0.32,-0.335,-0.34,-0.34,-0.335,-0.335,-0.33,-0.34,-0.32,-0.295,-0.29,-0.29,-0.31,-0.315,-0.305,-0.29,-0.275,-0.275,-0.29,-0.28,-0.275,-0.27,-0.26,-0.28,-0.285,-0.29,-0.295,-0.245,-0.24,-0.255,-0.255,-0.285,-0.27,-0.26,-0.225,-0.225,-0.22,-0.22,-0.23,-0.22,-0.215,-0.2,-0.22,-0.21,-0.205,-0.195,-0.17,-0.15,-0.16,-0.17,-0.17,-0.135,-0.11,-0.105,-0.12,-0.12,-0.11,-0.1,-0.08,-0.075,-0.1,-0.08,-0.07,-0.055,-0.055,-0.065,-0.085,-0.1,-0.11,-0.11,-0.1,-0.11,-0.135,-0.15,-0.185,-0.195,-0.19,-0.215,-0.255,-0.27,-0.27,-0.265,-0.26,-0.285,-0.315,-0.335,-0.35,-0.355,-0.34,-0.345,-0.35,-0.375,-0.37,-0.365,-0.355,-0.37,-0.385,-0.37,-0.375,-0.345,-0.345,-0.36,-0.365,-0.395,-0.39,-0.37,-0.355,-0.36,-0.36,-0.37,-0.38,-0.35,-0.34,-0.35,-0.355,-0.36,-0.355,-0.335,-0.32,-0.32,-0.35,-0.37,-0.355,-0.35,-0.31,-0.315,-0.32,-0.33,-0.35,-0.34,-0.32,-0.34,-0.345,-0.345,-0.335,-0.325,-0.305,-0.32,-0.32,-0.33,-0.305,-0.275,-0.235,-0.22,-0.235,-0.23,-0.225,-0.2,-0.175,-0.15,-0.14,-0.135,-0.11,-0.075,-0.07,-0.085,-0.12,-0.13,-0.15,-0.15,-0.18,-0.215,-0.27,-0.32,-0.345,-0.355,-0.36,-0.365,-0.39,-0.4
0.0,212.0,-0.35,-0.375,-0.37,-0.365,-0.355,-0.37,-0.385,-0.37,-0.375,-0.345,-0.345,-0.36,-0.365,-0.395,-0.39,-0.37,-0.355,-0.36,-0.36,-0.37,-0.38,-0.35,-0.34,-0.35,-0.355,-0.36,-0.355,-0.335,-0.32,-0.32,-0.35,-0.37,-0.355,-0.35,-0.31,-0.315,-0.32,-0.33,-0.35,-0.34,-0.32,-0.34,-0.345,-0.345,-0.335,-0.325,-0.305,-0.32,-0.32,-0.33,-0.305,-0.275,-0.235,-0.22,-0.235,-0.23,-0.225,-0.2,-0.175,-0.15,-0.14,-0.135,-0.11,-0.075,-0.07,-0.085,-0.12,-0.13,-0.15,-0.15,-0.18,-0.215,-0.27,-0.32,-0.345,-0.355,-0.36,-0.365,-0.39,-0.4,-0.4,-0.385,-0.38,-0.395,-0.415,-0.435,-0.435,-0.42,-0.4,-0.4,-0.4,-0.42,-0.42,-0.425,-0.415,-0.405,-0.4,-0.41,-0.39,-0.385,-0.36,-0.355,-0.36,-0.355,-0.325,-0.235,-0.12,0.045,0.29,0.55,0.86,1.165,1.395,1.48,1.33,0.94,0.43,-0.005,-0.29,-0.415,-0.435,-0.415,-0.41,-0.375,-0.315,-0.31,-0.325,-0.34,-0.35,-0.355,-0.33,-0.335,-0.345,-0.35,-0.34,-0.325,-0.305,-0.33,-0.325,-0.335,-0.335,-0.32,-0.305,-0.28,-0.29,-0.305,-0.29,-0.285,-0.275,-0.285,-0.285,-0.295,-0.285,-0.26,-0.25,-0.265,-0.27,-0.28,-0.27,-0.265,-0.245,-0.23,-0.245,-0.255,-0.255,-0.22,-0.205,-0.22,-0.22,-0.225,-0.2,-0.17,-0.15,-0.155,-0.165,-0.17,-0.165,-0.135,-0.105,-0.095,-0.105,-0.1,-0.105,-0.09,-0.075,-0.06,-0.065,-0.06,-0.05,-0.035,-0.02,-0.015,-0.035,-0.055,-0.055,-0.035,-0.025,-0.025,-0.045,-0.07,-0.085,-0.095,-0.1,-0.125,-0.15,-0.175,-0.18,-0.17,-0.18,-0.2,-0.235,-0.27,-0.265,-0.26,-0.255,-0.255,-0.265,-0.29,-0.305,-0.29,-0.3,-0.295,-0.3,-0.31,-0.305,-0.28,-0.285,-0.285,-0.315,-0.335,-0.32,-0.305,-0.285,-0.295,-0.29,-0.295,-0.295,-0.285,-0.28,-0.275,-0.27,-0.28,-0.275,-0.265,-0.26,-0.27,-0.29,-0.295,-0.29,-0.25,-0.245,-0.25,-0.265,-0.28,-0.27,-0.265,-0.25,-0.245,-0.27,-0.27,-0.27,-0.26,-0.275,-0.275,-0.275,-0.285,-0.275,-0.26,-0.245,-0.245,-0.265,-0.275,-0.27,-0.25,-0.215,-0.19,-0.17,-0.18,-0.16,-0.13,-0.12,-0.12,-0.11,-0.08,-0.055,-0.02,0.01,-0.005,-0.025,-0.04,-0.065,-0.06,-0.05,-0.09,-0.135,-0.18,-0.22,-0.24,-0.26,-0.285
0.0,212.0,-0.31,-0.305,-0.28,-0.285,-0.285,-0.315,-0.335,-0.32,-0.305,-0.285,-0.295,-0.29,-0.295,-0.295,-0.285,-0.28,-0.275,-0.27,-0.28,-0.275,-0.265,-0.26,-0.27,-0.29,-0.295,-0.29,-0.25,-0.245,-0.25,-0.265,-0.28,-0.27,-0.265,-0.25,-0.245,-0.27,-0.27,-0.27,-0.26,-0.275,-0.275,-0.275,-0.285,-0.275,-0.26,-0.245,-0.245,-0.265,-0.275,-0.27,-0.25,-0.215,-0.19,-0.17,-0.18,-0.16,-0.13,-0.12,-0.12,-0.11,-0.08,-0.055,-0.02,0.01,-0.005,-0.025,-0.04,-0.065,-0.06,-0.05,-0.09,-0.135,-0.18,-0.22,-0.24,-0.26,-0.285,-0.31,-0.32,-0.33,-0.32,-0.335,-0.325,-0.355,-0.375,-0.38,-0.365,-0.355,-0.34,-0.355,-0.375,-0.38,-0.375,-0.38,-0.375,-0.37,-0.375,-0.345,-0.325,-0.305,-0.32,-0.325,-0.36,-0.325,-0.28,-0.21,-0.115,0.025,0.2,0.465,0.76,1.08,1.375,1.535,1.48,1.165,0.685,0.2,-0.185,-0.41,-0.47,-0.435,-0.35,-0.295,-0.26,-0.275,-0.3,-0.305,-0.3,-0.295,-0.31,-0.325,-0.33,-0.32,-0.32,-0.315,-0.305,-0.315,-0.33,-0.325,-0.305,-0.28,-0.28,-0.3,-0.3,-0.3,-0.285,-0.285,-0.285,-0.275,-0.29,-0.275,-0.26,-0.24,-0.25,-0.27,-0.285,-0.28,-0.255,-0.25,-0.24,-0.25,-0.245,-0.235,-0.235,-0.215,-0.22,-0.225,-0.235,-0.22,-0.19,-0.17,-0.175,-0.18,-0.185,-0.19,-0.15,-0.125,-0.115,-0.105,-0.125,-0.12,-0.105,-0.08,-0.075,-0.07,-0.07,-0.06,-0.025,-0.02,-0.01,-0.04,-0.055,-0.035,-0.03,-0.015,-0.015,-0.03,-0.05,-0.065,-0.07,-0.075,-0.1,-0.135,-0.155,-0.16,-0.17,-0.165,-0.19,-0.245,-0.27,-0.275,-0.28,-0.27,-0.28,-0.295,-0.3,-0.325,-0.33,-0.31,-0.325,-0.35,-0.355,-0.35,-0.345,-0.325,-0.33,-0.335,-0.355,-0.38,-0.355,-0.345,-0.34,-0.345,-0.365,-0.35,-0.345,-0.335,-0.335,-0.37,-0.37,-0.375,-0.35,-0.32,-0.33,-0.33,-0.34,-0.34,-0.345,-0.33,-0.355,-0.35,-0.35,-0.33,-0.335,-0.31,-0.305,-0.325,-0.36,-0.35,-0.335,-0.305,-0.32,-0.32,-0.34,-0.33,-0.325,-0.315,-0.33,-0.345,-0.335,-0.335,-0.31,-0.305,-0.31,-0.35,-0.36,-0.345,-0.32,-0.28,-0.245,-0.255,-0.235,-0.22,-0.2,-0.185,-0.175,-0.185,-0.17,-0.14,-0.1,-0.05,-0.03,-0.055,-0.07,-0.08,-0.08,-0.07,-0.095,-0.125
0.0,212.0,-0.34,-0.345,-0.365,-0.35,-0.345,-0.335,-0.335,-0.37,-0.37,-0.375,-0.35,-0.32,-0.33,-0.33,-0.34,-0.34,-0.345,-0.33,-0.355,-0.35,-0.35,-0.33,-0.335,-0.31,-0.305,-0.325,-0.36,-0.35,-0.335,-0.305,-0.32,-0.32,-0.34,-0.33,-0.325,-0.315,-0.33,-0.345,-0.335,-0.335,-0.31,-0.305,-0.31,-0.35,-0.36,-0.345,-0.32,-0.28,-0.245,-0.255,-0.235,-0.22,-0.2,-0.185,-0.175,-0.185,-0.17,-0.14,-0.1,-0.05,-0.03,-0.055,-0.07,-0.08,-0.08,-0.07,-0.095,-0.125,-0.135,-0.17,-0.2,-0.235,-0.285,-0.32,-0.345,-0.34,-0.33,-0.32,-0.35,-0.37,-0.4,-0.395,-0.395,-0.39,-0.385,-0.405,-0.4,-0.4,-0.385,-0.385,-0.39,-0.41,-0.42,-0.415,-0.4,-0.38,-0.36,-0.37,-0.39,-0.39,-0.37,-0.35,-0.345,-0.325,-0.3,-0.235,-0.125,0.035,0.205,0.43,0.695,1.005,1.29,1.46,1.46,1.165,0.685,0.175,-0.215,-0.425,-0.49,-0.475,-0.43,-0.37,-0.315,-0.295,-0.32,-0.34,-0.365,-0.345,-0.34,-0.33,-0.33,-0.36,-0.36,-0.34,-0.345,-0.335,-0.335,-0.345,-0.355,-0.37,-0.315,-0.295,-0.295,-0.31,-0.34,-0.34,-0.325,-0.315,-0.295,-0.3,-0.3,-0.3,-0.295,-0.29,-0.295,-0.3,-0.32,-0.3,-0.285,-0.265,-0.25,-0.27,-0.27,-0.28,-0.255,-0.24,-0.245,-0.235,-0.24,-0.225,-0.21,-0.2,-0.21,-0.215,-0.23,-0.21,-0.195,-0.17,-0.16,-0.165,-0.185,-0.18,-0.155,-0.13,-0.115,-0.135,-0.135,-0.11,-0.09,-0.075,-0.095,-0.11,-0.1,-0.115,-0.1,-0.075,-0.075,-0.095,-0.105,-0.125,-0.125,-0.125,-0.155,-0.19,-0.21,-0.22,-0.23,-0.22,-0.255,-0.28,-0.32,-0.33,-0.33,-0.325,-0.35,-0.35,-0.37,-0.38,-0.375,-0.375,-0.395,-0.42,-0.42,-0.42,-0.4,-0.39,-0.395,-0.42,-0.43,-0.43,-0.43,-0.41,-0.425,-0.43,-0.43,-0.42,-0.41,-0.405,-0.405,-0.435,-0.47,-0.46,-0.425,-0.4,-0.39,-0.405,-0.41,-0.42,-0.405,-0.395,-0.4,-0.405,-0.43,-0.415,-0.395,-0.365,-0.37,-0.39,-0.4,-0.39,-0.375,-0.37,-0.355,-0.36,-0.38,-0.38,-0.385,-0.38,-0.39,-0.39,-0.405,-0.395,-0.375,-0.365,-0.375,-0.395,-0.41,-0.41,-0.405,-0.37,-0.385,-0.4,-0.395,-0.385,-0.36,-0.34,-0.32,-0.32,-0.325,-0.3,-0.29,-0.25,-0.235,-0.23,-0.225,-0.195,-0.16,-0.145
0.0,212.0,-0.405,-0.435,-0.47,-0.46,-0.425,-0.4,-0.39,-0.405,-0.41,-0.42,-0.405,-0.395,-0.4,-0.405,-0.43,-0.415,-0.395,-0.365,-0.37,-0.39,-0.4,-0.39,-0.375,-0.37,-0.355,-0.36,-0.38,-0.38,-0.385,-0.38,-0.39,-0.39,-0.405,-0.395,-0.375,-0.365,-0.375,-0.395,-0.41,-0.41,-0.405,-0.37,-0.385,-0.4,-0.395,-0.385,-0.36,-0.34,-0.32,-0.32,-0.325,-0.3,-0.29,-0.25,-0.235,-0.23,-0.225,-0.195,-0.16,-0.145,-0.135,-0.14,-0.155,-0.15,-0.15,-0.135,-0.16,-0.2,-0.26,-0.295,-0.325,-0.335,-0.37,-0.365,-0.39,-0.405,-0.435,-0.425,-0.43,-0.445,-0.465,-0.46,-0.45,-0.44,-0.44,-0.465,-0.485,-0.495,-0.48,-0.47,-0.455,-0.465,-0.46,-0.475,-0.455,-0.44,-0.45,-0.46,-0.475,-0.455,-0.43,-0.41,-0.4,-0.38,-0.36,-0.31,-0.21,-0.065,0.13,0.365,0.64,0.94,1.215,1.38,1.4,1.19,0.78,0.315,-0.075,-0.345,-0.465,-0.5,-0.52,-0.51,-0.475,-0.44,-0.43,-0.45,-0.47,-0.45,-0.435,-0.415,-0.41,-0.445,-0.455,-0.46,-0.455,-0.435,-0.44,-0.43,-0.43,-0.425,-0.41,-0.41,-0.445,-0.425,-0.455,-0.425,-0.395,-0.375,-0.385,-0.4,-0.395,-0.4,-0.39,-0.38,-0.385,-0.385,-0.385,-0.39,-0.365,-0.34,-0.34,-0.365,-0.365,-0.36,-0.36,-0.33,-0.32,-0.325,-0.32,-0.32,-0.31,-0.305,-0.3,-0.32,-0.32,-0.295,-0.265,-0.245,-0.235,-0.255,-0.275,-0.26,-0.24,-0.235,-0.23,-0.23,-0.235,-0.2,-0.165,-0.17,-0.17,-0.19,-0.195,-0.175,-0.16,-0.14,-0.135,-0.155,-0.155,-0.17,-0.17,-0.17,-0.165,-0.2,-0.2,-0.22,-0.205,-0.215,-0.24,-0.285,-0.31,-0.315,-0.325,-0.305,-0.31,-0.34,-0.355,-0.36,-0.375,-0.365,-0.385,-0.4,-0.405,-0.41,-0.39,-0.375,-0.395,-0.41,-0.42,-0.43,-0.425,-0.405,-0.395,-0.4,-0.4,-0.39,-0.38,-0.41,-0.4,-0.405,-0.42,-0.405,-0.38,-0.37,-0.37,-0.385,-0.395,-0.395,-0.39,-0.375,-0.365,-0.37,-0.365,-0.37,-0.35,-0.34,-0.35,-0.37,-0.36,-0.36,-0.33,-0.315,-0.325,-0.335,-0.355,-0.36,-0.36,-0.35,-0.355,-0.355,-0.365,-0.355,-0.33,-0.325,-0.345,-0.365,-0.36,-0.355,-0.33,-0.315,-0.295,-0.3,-0.285,-0.265,-0.255,-0.24,-0.235,-0.225,-0.215,-0.18,-0.15,-0.125,-0.115,-0.11,-0.11,-0.105,-0.075,-0.065
0.0,212.0,-0.4,-0.4,-0.39,-0.38,-0.41,-0.4,-0.405,-0.42,-0.405,-0.38,-0.37,-0.37,-0.385,-0.395,-0.395,-0.39,-0.375,-0.365,-0.37,-0.365,-0.37,-0.35,-0.34,-0.35,-0.37,-0.36,-0.36,-0.33,-0.315,-0.325,-0.335,-0.355,-0.36,-0.36,-0.35,-0.355,-0.355,-0.365,-0.355,-0.33,-0.325,-0.345,-0.365,-0.36,-0.355,-0.33,-0.315,-0.295,-0.3,-0.285,-0.265,-0.255,-0.24,-0.235,-0.225,-0.215,-0.18,-0.15,-0.125,-0.115,-0.11,-0.11,-0.105,-0.075,-0.065,-0.065,-0.085,-0.11,-0.13,-0.145,-0.16,-0.2,-0.255,-0.29,-0.29,-0.295,-0.295,-0.32,-0.345,-0.365,-0.37,-0.355,-0.345,-0.345,-0.375,-0.38,-0.385,-0.385,-0.37,-0.385,-0.39,-0.38,-0.37,-0.355,-0.355,-0.37,-0.365,-0.37,-0.365,-0.34,-0.32,-0.305,-0.295,-0.265,-0.23,-0.145,-0.02,0.135,0.375,0.665,0.99,1.31,1.545,1.585,1.375,0.96,0.45,0.03,-0.24,-0.35,-0.36,-0.35,-0.31,-0.275,-0.255,-0.265,-0.27,-0.285,-0.28,-0.27,-0.26,-0.27,-0.285,-0.3,-0.295,-0.29,-0.275,-0.275,-0.26,-0.26,-0.265,-0.265,-0.25,-0.235,-0.255,-0.255,-0.24,-0.215,-0.195,-0.2,-0.225,-0.225,-0.235,-0.215,-0.195,-0.185,-0.19,-0.185,-0.175,-0.16,-0.165,-0.17,-0.18,-0.16,-0.15,-0.13,-0.11,-0.105,-0.115,-0.13,-0.125,-0.105,-0.08,-0.08,-0.08,-0.09,-0.08,-0.065,-0.045,-0.045,-0.04,-0.045,-0.035,-0.005,0.025,0.025,0.035,0.025,0.03,0.05,0.07,0.065,0.065,0.07,0.065,0.08,0.09,0.075,0.065,0.045,0.04,0.045,0.055,0.045,0.005,0.0,-0.015,-0.035,-0.04,-0.07,-0.08,-0.11,-0.115,-0.115,-0.13,-0.12,-0.155,-0.18,-0.18,-0.185,-0.175,-0.175,-0.185,-0.19,-0.2,-0.19,-0.17,-0.185,-0.21,-0.225,-0.225,-0.21,-0.205,-0.195,-0.205,-0.21,-0.225,-0.21,-0.21,-0.21,-0.21,-0.22,-0.195,-0.2,-0.19,-0.185,-0.205,-0.215,-0.205,-0.2,-0.175,-0.165,-0.16,-0.175,-0.18,-0.175,-0.175,-0.19,-0.19,-0.2,-0.2,-0.17,-0.135,-0.14,-0.155,-0.165,-0.175,-0.165,-0.155,-0.16,-0.175,-0.165,-0.165,-0.18,-0.15,-0.165,-0.18,-0.2,-0.185,-0.18,-0.16,-0.165,-0.18,-0.185,-0.185,-0.18,-0.16,-0.15,-0.15,-0.135,-0.115,-0.08,-0.06,-0.07,-0.085,-0.085,-0.055,-0.025,0.005,0.03
0.0,212.0,-0.195,-0.2,-0.19,-0.185,-0.205,-0.215,-0.205,-0.2,-0.175,-0.165,-0.16,-0.175,-0.18,-0.175,-0.175,-0.19,-0.19,-0.2,-0.2,-0.17,-0.135,-0.14,-0.155,-0.165,-0.175,-0.165,-0.155,-0.16,-0.175,-0.165,-0.165,-0.18,-0.15,-0.165,-0.18,-0.2,-0.185,-0.18,-0.16,-0.165,-0.18,-0.185,-0.185,-0.18,-0.16,-0.15,-0.15,-0.135,-0.115,-0.08,-0.06,-0.07,-0.085,-0.085,-0.055,-0.025,0.005,0.03,0.045,0.055,0.055,0.075,0.085,0.07,0.055,0.05,0.03,0.03,0.02,-0.02,-0.085,-0.145,-0.18,-0.205,-0.19,-0.2,-0.215,-0.235,-0.24,-0.225,-0.25,-0.26,-0.27,-0.29,-0.285,-0.26,-0.25,-0.255,-0.275,-0.285,-0.285,-0.275,-0.275,-0.265,-0.27,-0.275,-0.265,-0.23,-0.22,-0.24,-0.235,-0.25,-0.235,-0.17,-0.115,-0.04,0.055,0.205,0.415,0.675,0.97,1.255,1.49,1.595,1.515,1.175,0.735,0.26,-0.105,-0.305,-0.34,-0.305,-0.245,-0.19,-0.18,-0.195,-0.2,-0.21,-0.21,-0.215,-0.215,-0.225,-0.225,-0.2,-0.2,-0.205,-0.225,-0.24,-0.24,-0.215,-0.195,-0.19,-0.195,-0.21,-0.2,-0.19,-0.185,-0.18,-0.195,-0.195,-0.175,-0.17,-0.14,-0.15,-0.17,-0.195,-0.19,-0.165,-0.14,-0.145,-0.135,-0.155,-0.16,-0.155,-0.135,-0.15,-0.155,-0.145,-0.125,-0.1,-0.075,-0.085,-0.105,-0.11,-0.1,-0.08,-0.055,-0.055,-0.06,-0.055,-0.03,-0.015,-0.005,0.015,0.005,0.0,0.015,0.055,0.07,0.08,0.05,0.03,0.055,0.045,0.065,0.075,0.055,0.055,0.04,0.05,0.055,0.03,-0.005,-0.025,-0.04,-0.025,-0.03,-0.05,-0.095,-0.135,-0.135,-0.14,-0.13,-0.15,-0.18,-0.18,-0.19,-0.19,-0.195,-0.205,-0.21,-0.225,-0.225,-0.215,-0.2,-0.21,-0.235,-0.245,-0.26,-0.255,-0.24,-0.225,-0.245,-0.26,-0.25,-0.235,-0.24,-0.265,-0.265,-0.255,-0.255,-0.24,-0.21,-0.215,-0.245,-0.245,-0.255,-0.255,-0.23,-0.23,-0.24,-0.25,-0.225,-0.215,-0.21,-0.225,-0.225,-0.245,-0.235,-0.225,-0.2,-0.2,-0.22,-0.235,-0.235,-0.225,-0.21,-0.215,-0.23,-0.23,-0.245,-0.215,-0.215,-0.235,-0.23,-0.26,-0.25,-0.24,-0.225,-0.22,-0.22,-0.23,-0.245,-0.235,-0.22,-0.195,-0.2,-0.18,-0.165,-0.13,-0.105,-0.095,-0.11,-0.11,-0.09,-0.06,-0.02,-0.01,0.03,0.02
0.0,212.0,-0.265,-0.255,-0.255,-0.24,-0.21,-0.215,-0.245,-0.245,-0.255,-0.255,-0.23,-0.23,-0.24,-0.25,-0.225,-0.215,-0.21,-0.225,-0.225,-0.245,-0.235,-0.225,-0.2,-0.2,-0.22,-0.235,-0.235,-0.225,-0.21,-0.215,-0.23,-0.23,-0.245,-0.215,-0.215,-0.235,-0.23,-0.26,-0.25,-0.24,-0.225,-0.22,-0.22,-0.23,-0.245,-0.235,-0.22,-0.195,-0.2,-0.18,-0.165,-0.13,-0.105,-0.095,-0.11,-0.11,-0.09,-0.06,-0.02,-0.01,0.03,0.02,0.03,0.05,0.045,0.015,0.0,-0.015,-0.035,-0.03,-0.055,-0.1,-0.165,-0.21,-0.235,-0.235,-0.245,-0.235,-0.25,-0.265,-0.27,-0.285,-0.265,-0.295,-0.31,-0.325,-0.31,-0.305,-0.295,-0.28,-0.31,-0.335,-0.325,-0.32,-0.3,-0.3,-0.305,-0.32,-0.305,-0.29,-0.27,-0.275,-0.28,-0.27,-0.22,-0.155,-0.065,0.075,0.24,0.46,0.73,1.02,1.3,1.465,1.48,1.265,0.85,0.41,0.025,-0.235,-0.365,-0.385,-0.345,-0.29,-0.255,-0.225,-0.255,-0.29,-0.32,-0.29,-0.275,-0.28,-0.285,-0.295,-0.27,-0.26,-0.24,-0.26,-0.28,-0.29,-0.275,-0.265,-0.24,-0.225,-0.24,-0.245,-0.25,-0.245,-0.225,-0.235,-0.24,-0.235,-0.235,-0.225,-0.215,-0.225,-0.235,-0.255,-0.25,-0.24,-0.2,-0.195,-0.22,-0.22,-0.22,-0.215,-0.2,-0.21,-0.21,-0.225,-0.205,-0.18,-0.155,-0.16,-0.18,-0.175,-0.17,-0.15,-0.12,-0.11,-0.11,-0.115,-0.095,-0.09,-0.06,-0.06,-0.08,-0.09,-0.065,-0.04,-0.025,-0.02,-0.04,-0.05,-0.055,-0.035,-0.01,-0.02,-0.04,-0.055,-0.055,-0.05,-0.045,-0.085,-0.105,-0.13,-0.135,-0.14,-0.14,-0.175,-0.205,-0.235,-0.26,-0.26,-0.26,-0.285,-0.28,-0.285,-0.28,-0.285,-0.285,-0.295,-0.33,-0.345,-0.345,-0.34,-0.325,-0.33,-0.34,-0.365,-0.36,-0.36,-0.35,-0.345,-0.36,-0.36,-0.36,-0.335,-0.32,-0.335,-0.35,-0.36,-0.36,-0.34,-0.315,-0.32,-0.33,-0.345,-0.34,-0.36,-0.335,-0.33,-0.34,-0.34,-0.32,-0.305,-0.305,-0.335,-0.34,-0.35,-0.345,-0.33,-0.31,-0.315,-0.32,-0.33,-0.34,-0.315,-0.325,-0.32,-0.34,-0.345,-0.345,-0.32,-0.325,-0.34,-0.355,-0.36,-0.355,-0.315,-0.285,-0.275,-0.275,-0.265,-0.255,-0.25,-0.215,-0.195,-0.19,-0.18,-0.16,-0.125,-0.1,-0.09,-0.095,-0.11,-0.1,-0.08,-0.08,-0.09
0.0,212.0,-0.36,-0.35,-0.345,-0.36,-0.36,-0.36,-0.335,-0.32,-0.335,-0.35,-0.36,-0.36,-0.34,-0.315,-0.32,-0.33,-0.345,-0.34,-0.36,-0.335,-0.33,-0.34,-0.34,-0.32,-0.305,-0.305,-0.335,-0.34,-0.35,-0.345,-0.33,-0.31,-0.315,-0.32,-0.33,-0.34,-0.315,-0.325,-0.32,-0.34,-0.345,-0.345,-0.32,-0.325,-0.34,-0.355,-0.36,-0.355,-0.315,-0.285,-0.275,-0.275,-0.265,-0.255,-0.25,-0.215,-0.195,-0.19,-0.18,-0.16,-0.125,-0.1,-0.09,-0.095,-0.11,-0.1,-0.08,-0.08,-0.09,-0.12,-0.17,-0.205,-0.225,-0.265,-0.3,-0.325,-0.345,-0.37,-0.36,-0.365,-0.395,-0.41,-0.425,-0.435,-0.41,-0.4,-0.405,-0.42,-0.435,-0.445,-0.43,-0.415,-0.415,-0.43,-0.42,-0.405,-0.395,-0.375,-0.385,-0.4,-0.395,-0.385,-0.35,-0.325,-0.285,-0.235,-0.155,0.0,0.255,0.545,0.86,1.155,1.38,1.44,1.27,0.865,0.355,-0.09,-0.365,-0.46,-0.435,-0.4,-0.405,-0.415,-0.4,-0.41,-0.395,-0.385,-0.37,-0.365,-0.385,-0.38,-0.375,-0.375,-0.385,-0.4,-0.4,-0.375,-0.365,-0.33,-0.34,-0.36,-0.375,-0.375,-0.36,-0.335,-0.34,-0.345,-0.34,-0.35,-0.34,-0.335,-0.335,-0.34,-0.335,-0.33,-0.305,-0.31,-0.28,-0.3,-0.31,-0.325,-0.305,-0.285,-0.26,-0.28,-0.27,-0.265,-0.26,-0.245,-0.24,-0.265,-0.265,-0.245,-0.215,-0.195,-0.2,-0.21,-0.2,-0.195,-0.18,-0.155,-0.145,-0.14,-0.145,-0.125,-0.11,-0.095,-0.115,-0.125,-0.13,-0.135,-0.11,-0.085,-0.085,-0.105,-0.135,-0.15,-0.14,-0.13,-0.145,-0.175,-0.185,-0.21,-0.21,-0.23,-0.25,-0.27,-0.305,-0.3,-0.285,-0.275,-0.3,-0.32,-0.345,-0.35,-0.365,-0.35,-0.35,-0.36,-0.37,-0.375,-0.37,-0.36,-0.375,-0.385,-0.385,-0.37,-0.35,-0.34,-0.345,-0.35,-0.36,-0.365,-0.35,-0.325,-0.32,-0.33,-0.35,-0.325,-0.32,-0.315,-0.32,-0.325,-0.32,-0.32,-0.305,-0.285,-0.3,-0.32,-0.335,-0.325,-0.305,-0.28,-0.285,-0.295,-0.3,-0.285,-0.28,-0.275,-0.29,-0.295,-0.325,-0.305,-0.285,-0.28,-0.285,-0.305,-0.315,-0.32,-0.31,-0.28,-0.275,-0.285,-0.28,-0.275,-0.265,-0.235,-0.22,-0.205,-0.195,-0.17,-0.145,-0.115,-0.11,-0.12,-0.12,-0.075,-0.04,-0.005,-0.005,-0.005,-0.015,-0.02,-0.01,-0.015,-0.04,-0.09,-0.125,-0.145
0.0,212.0,-0.37,-0.35,-0.34,-0.345,-0.35,-0.36,-0.365,-0.35,-0.325,-0.32,-0.33,-0.35,-0.325,-0.32,-0.315,-0.32,-0.325,-0.32,-0.32,-0.305,-0.285,-0.3,-0.32,-0.335,-0.325,-0.305,-0.28,-0.285,-0.295,-0.3,-0.285,-0.28,-0.275,-0.29,-0.295,-0.325,-0.305,-0.285,-0.28,-0.285,-0.305,-0.315,-0.32,-0.31,-0.28,-0.275,-0.285,-0.28,-0.275,-0.265,-0.235,-0.22,-0.205,-0.195,-0.17,-0.145,-0.115,-0.11,-0.12,-0.12,-0.075,-0.04,-0.005,-0.005,-0.005,-0.015,-0.02,-0.01,-0.015,-0.04,-0.09,-0.125,-0.145,-0.165,-0.185,-0.22,-0.24,-0.27,-0.28,-0.28,-0.265,-0.27,-0.285,-0.3,-0.305,-0.295,-0.29,-0.3,-0.315,-0.32,-0.31,-0.29,-0.285,-0.28,-0.315,-0.32,-0.305,-0.29,-0.25,-0.245,-0.245,-0.235,-0.235,-0.215,-0.175,-0.135,-0.055,0.08,0.285,0.57,0.885,1.17,1.435,1.59,1.535,1.27,0.835,0.35,-0.07,-0.3,-0.35,-0.305,-0.245,-0.205,-0.2,-0.22,-0.22,-0.215,-0.2,-0.205,-0.21,-0.245,-0.255,-0.215,-0.195,-0.185,-0.19,-0.2,-0.195,-0.195,-0.18,-0.175,-0.18,-0.175,-0.17,-0.15,-0.135,-0.135,-0.15,-0.165,-0.165,-0.15,-0.11,-0.11,-0.11,-0.13,-0.135,-0.125,-0.115,-0.11,-0.13,-0.12,-0.105,-0.095,-0.065,-0.06,-0.085,-0.085,-0.09,-0.065,-0.035,-0.025,-0.035,-0.045,-0.05,-0.025,0.005,0.015,0.005,0.015,0.025,0.045,0.065,0.065,0.05,0.04,0.065,0.07,0.1,0.105,0.09,0.075,0.075,0.08,0.09,0.08,0.055,0.04,0.02,0.015,0.015,-0.015,-0.055,-0.075,-0.08,-0.085,-0.08,-0.115,-0.155,-0.18,-0.185,-0.175,-0.165,-0.165,-0.175,-0.2,-0.205,-0.2,-0.2,-0.215,-0.225,-0.23,-0.205,-0.2,-0.2,-0.21,-0.225,-0.225,-0.225,-0.22,-0.19,-0.18,-0.2,-0.205,-0.205,-0.19,-0.175,-0.18,-0.18,-0.19,-0.185,-0.165,-0.165,-0.175,-0.195,-0.2,-0.21,-0.195,-0.17,-0.155,-0.175,-0.195,-0.2,-0.19,-0.18,-0.175,-0.195,-0.185,-0.18,-0.17,-0.16,-0.18,-0.205,-0.205,-0.195,-0.18,-0.165,-0.18,-0.2,-0.22,-0.215,-0.2,-0.2,-0.19,-0.205,-0.205,-0.19,-0.19,-0.185,-0.19,-0.195,-0.195,-0.16,-0.11,-0.07,-0.05,-0.06,-0.05,-0.05,-0.015,0.015,0.03,0.05,0.06,0.085,0.095,0.09,0.065,0.065,0.05
0.0,212.0,-0.18,-0.2,-0.205,-0.205,-0.19,-0.175,-0.18,-0.18,-0.19,-0.185,-0.165,-0.165,-0.175,-0.195,-0.2,-0.21,-0.195,-0.17,-0.155,-0.175,-0.195,-0.2,-0.19,-0.18,-0.175,-0.195,-0.185,-0.18,-0.17,-0.16,-0.18,-0.205,-0.205,-0.195,-0.18,-0.165,-0.18,-0.2,-0.22,-0.215,-0.2,-0.2,-0.19,-0.205,-0.205,-0.19,-0.19,-0.185,-0.19,-0.195,-0.195,-0.16,-0.11,-0.07,-0.05,-0.06,-0.05,-0.05,-0.015,0.015,0.03,0.05,0.06,0.085,0.095,0.09,0.065,0.065,0.05,0.055,0.045,0.03,-0.01,-0.095,-0.14,-0.16,-0.17,-0.16,-0.185,-0.19,-0.21,-0.24,-0.23,-0.235,-0.24,-0.255,-0.26,-0.265,-0.245,-0.25,-0.245,-0.265,-0.275,-0.285,-0.265,-0.24,-0.24,-0.245,-0.23,-0.23,-0.22,-0.205,-0.2,-0.205,-0.185,-0.135,-0.045,0.09,0.25,0.465,0.725,1.035,1.355,1.575,1.605,1.355,0.915,0.425,0.025,-0.215,-0.295,-0.285,-0.225,-0.18,-0.14,-0.145,-0.195,-0.22,-0.23,-0.215,-0.205,-0.19,-0.19,-0.2,-0.225,-0.23,-0.215,-0.19,-0.195,-0.185,-0.19,-0.185,-0.18,-0.16,-0.17,-0.2,-0.21,-0.195,-0.17,-0.155,-0.16,-0.155,-0.175,-0.175,-0.155,-0.145,-0.145,-0.15,-0.16,-0.155,-0.125,-0.115,-0.125,-0.145,-0.155,-0.135,-0.12,-0.1,-0.1,-0.1,-0.11,-0.1,-0.08,-0.065,-0.06,-0.06,-0.065,-0.05,-0.01,0.0,0.015,0.0,-0.005,0.005,0.035,0.055,0.06,0.055,0.035,0.05,0.055,0.07,0.08,0.065,0.07,0.075,0.07,0.065,0.05,0.015,0.0,0.0,-0.01,0.01,-0.015,-0.045,-0.09,-0.1,-0.105,-0.12,-0.14,-0.155,-0.165,-0.175,-0.175,-0.165,-0.19,-0.22,-0.235,-0.245,-0.22,-0.215,-0.23,-0.23,-0.245,-0.25,-0.24,-0.23,-0.245,-0.255,-0.265,-0.26,-0.25,-0.23,-0.245,-0.245,-0.26,-0.245,-0.23,-0.215,-0.22,-0.22,-0.245,-0.245,-0.235,-0.225,-0.215,-0.23,-0.235,-0.23,-0.21,-0.21,-0.22,-0.225,-0.25,-0.24,-0.215,-0.2,-0.205,-0.195,-0.205,-0.22,-0.205,-0.205,-0.2,-0.215,-0.225,-0.22,-0.215,-0.2,-0.215,-0.225,-0.24,-0.245,-0.235,-0.215,-0.23,-0.235,-0.24,-0.235,-0.24,-0.225,-0.225,-0.235,-0.25,-0.22,-0.215,-0.185,-0.175,-0.175,-0.165,-0.15,-0.115,-0.085,-0.085,-0.08,-0.07,-0.045,-0.025,0.005
0.0,212.0,-0.245,-0.23,-0.215,-0.22,-0.22,-0.245,-0.245,-0.235,-0.225,-0.215,-0.23,-0.235,-0.23,-0.21,-0.21,-0.22,-0.225,-0.25,-0.24,-0.215,-0.2,-0.205,-0.195,-0.205,-0.22,-0.205,-0.205,-0.2,-0.215,-0.225,-0.22,-0.215,-0.2,-0.215,-0.225,-0.24,-0.245,-0.235,-0.215,-0.23,-0.235,-0.24,-0.235,-0.24,-0.225,-0.225,-0.235,-0.25,-0.22,-0.215,-0.185,-0.175,-0.175,-0.165,-0.15,-0.115,-0.085,-0.085,-0.08,-0.07,-0.045,-0.025,0.005,0.015,0.015,0.005,0.015,0.015,0.015,-0.025,-0.06,-0.1,-0.13,-0.17,-0.185,-0.21,-0.245,-0.265,-0.29,-0.29,-0.29,-0.295,-0.315,-0.32,-0.32,-0.325,-0.325,-0.34,-0.355,-0.365,-0.36,-0.36,-0.325,-0.33,-0.34,-0.35,-0.36,-0.33,-0.32,-0.325,-0.315,-0.33,-0.305,-0.27,-0.255,-0.21,-0.135,-0.005,0.185,0.43,0.74,1.05,1.3,1.45,1.405,1.105,0.655,0.175,-0.19,-0.41,-0.455,-0.42,-0.375,-0.35,-0.34,-0.34,-0.345,-0.335,-0.33,-0.34,-0.365,-0.375,-0.375,-0.35,-0.34,-0.35,-0.35,-0.355,-0.35,-0.345,-0.34,-0.34,-0.35,-0.36,-0.34,-0.335,-0.3,-0.315,-0.33,-0.335,-0.35,-0.33,-0.325,-0.34,-0.335,-0.32,-0.32,-0.315,-0.3,-0.325,-0.325,-0.33,-0.32,-0.29,-0.275,-0.27,-0.295,-0.295,-0.31,-0.295,-0.275,-0.285,-0.275,-0.26,-0.255,-0.24,-0.235,-0.25,-0.255,-0.255,-0.245,-0.23,-0.18,-0.17,-0.175,-0.19,-0.19,-0.18,-0.15,-0.145,-0.16,-0.165,-0.155,-0.14,-0.145,-0.15,-0.165,-0.185,-0.185,-0.17,-0.155,-0.18,-0.205,-0.245,-0.255,-0.285,-0.28,-0.31,-0.34,-0.36,-0.36,-0.36,-0.385,-0.395,-0.425,-0.435,-0.455,-0.42,-0.425,-0.44,-0.45,-0.485,-0.485,-0.49,-0.475,-0.465,-0.48,-0.49,-0.48,-0.465,-0.47,-0.465,-0.485,-0.5,-0.49,-0.475,-0.45,-0.455,-0.47,-0.475,-0.475,-0.46,-0.445,-0.455,-0.475,-0.47,-0.45,-0.45,-0.425,-0.44,-0.45,-0.46,-0.465,-0.44,-0.425,-0.42,-0.43,-0.46,-0.445,-0.435,-0.435,-0.43,-0.455,-0.445,-0.435,-0.44,-0.415,-0.43,-0.435,-0.45,-0.465,-0.435,-0.43,-0.415,-0.415,-0.435,-0.435,-0.42,-0.415,-0.42,-0.43,-0.415,-0.39,-0.36,-0.32,-0.315,-0.31,-0.325,-0.305,-0.285,-0.23,-0.21,-0.2,-0.185,-0.185,-0.175,-0.16,-0.185,-0.215,-0.24
0.0,212.0,-0.5,-0.49,-0.475,-0.45,-0.455,-0.47,-0.475,-0.475,-0.46,-0.445,-0.455,-0.475,-0.47,-0.45,-0.45,-0.425,-0.44,-0.45,-0.46,-0.465,-0.44,-0.425,-0.42,-0.43,-0.46,-0.445,-0.435,-0.435,-0.43,-0.455,-0.445,-0.435,-0.44,-0.415,-0.43,-0.435,-0.45,-0.465,-0.435,-0.43,-0.415,-0.415,-0.435,-0.435,-0.42,-0.415,-0.42,-0.43,-0.415,-0.39,-0.36,-0.32,-0.315,-0.31,-0.325,-0.305,-0.285,-0.23,-0.21,-0.2,-0.185,-0.185,-0.175,-0.16,-0.185,-0.215,-0.24,-0.235,-0.24,-0.25,-0.3,-0.355,-0.42,-0.435,-0.435,-0.44,-0.44,-0.465,-0.47,-0.505,-0.505,-0.495,-0.5,-0.51,-0.525,-0.515,-0.515,-0.515,-0.505,-0.525,-0.54,-0.55,-0.54,-0.505,-0.51,-0.515,-0.505,-0.505,-0.5,-0.485,-0.485,-0.495,-0.47,-0.45,-0.385,-0.31,-0.19,-0.04,0.175,0.48,0.795,1.095,1.32,1.405,1.265,0.905,0.44,-0.015,-0.365,-0.55,-0.59,-0.56,-0.52,-0.49,-0.465,-0.46,-0.48,-0.48,-0.485,-0.48,-0.495,-0.485,-0.49,-0.495,-0.47,-0.47,-0.485,-0.485,-0.485,-0.475,-0.46,-0.44,-0.435,-0.445,-0.475,-0.465,-0.45,-0.43,-0.44,-0.45,-0.44,-0.445,-0.42,-0.405,-0.41,-0.415,-0.445,-0.43,-0.425,-0.39,-0.38,-0.39,-0.39,-0.395,-0.39,-0.375,-0.37,-0.38,-0.37,-0.365,-0.335,-0.335,-0.325,-0.33,-0.345,-0.33,-0.315,-0.275,-0.27,-0.28,-0.27,-0.26,-0.245,-0.235,-0.235,-0.225,-0.23,-0.21,-0.18,-0.17,-0.17,-0.19,-0.195,-0.19,-0.18,-0.15,-0.15,-0.155,-0.165,-0.17,-0.16,-0.16,-0.185,-0.2,-0.22,-0.24,-0.24,-0.235,-0.245,-0.28,-0.305,-0.33,-0.34,-0.32,-0.33,-0.345,-0.365,-0.355,-0.355,-0.36,-0.37,-0.39,-0.4,-0.405,-0.39,-0.365,-0.375,-0.375,-0.4,-0.39,-0.395,-0.4,-0.39,-0.395,-0.395,-0.38,-0.37,-0.345,-0.36,-0.385,-0.38,-0.365,-0.35,-0.335,-0.32,-0.33,-0.335,-0.335,-0.325,-0.32,-0.33,-0.33,-0.325,-0.305,-0.295,-0.27,-0.26,-0.3,-0.3,-0.295,-0.285,-0.285,-0.28,-0.285,-0.295,-0.285,-0.265,-0.26,-0.275,-0.29,-0.3,-0.285,-0.27,-0.25,-0.26,-0.27,-0.28,-0.285,-0.275,-0.265,-0.265,-0.28,-0.285,-0.265,-0.255,-0.235,-0.23,-0.225,-0.21,-0.2,-0.175,-0.155,-0.145,-0.135,-0.125,-0.085,-0.07,-0.045,-0.04,-0.03
0.0,212.0,-0.365,-0.35,-0.335,-0.32,-0.33,-0.335,-0.335,-0.325,-0.32,-0.33,-0.33,-0.325,-0.305,-0.295,-0.27,-0.26,-0.3,-0.3,-0.295,-0.285,-0.285,-0.28,-0.285,-0.295,-0.285,-0.265,-0.26,-0.275,-0.29,-0.3,-0.285,-0.27,-0.25,-0.26,-0.27,-0.28,-0.285,-0.275,-0.265,-0.265,-0.28,-0.285,-0.265,-0.255,-0.235,-0.23,-0.225,-0.21,-0.2,-0.175,-0.155,-0.145,-0.135,-0.125,-0.085,-0.07,-0.045,-0.04,-0.03,-0.025,-0.015,0.005,0.035,0.035,0.01,-0.02,-0.03,-0.055,-0.06,-0.115,-0.16,-0.185,-0.205,-0.205,-0.205,-0.225,-0.25,-0.275,-0.285,-0.27,-0.26,-0.265,-0.28,-0.3,-0.31,-0.305,-0.29,-0.31,-0.325,-0.32,-0.305,-0.285,-0.27,-0.285,-0.29,-0.3,-0.29,-0.27,-0.265,-0.255,-0.255,-0.25,-0.245,-0.21,-0.155,-0.115,-0.025,0.12,0.345,0.59,0.885,1.18,1.425,1.6,1.615,1.43,1.045,0.54,0.105,-0.185,-0.305,-0.3,-0.26,-0.22,-0.205,-0.215,-0.2,-0.2,-0.205,-0.195,-0.205,-0.225,-0.225,-0.215,-0.205,-0.205,-0.22,-0.23,-0.215,-0.2,-0.185,-0.19,-0.195,-0.22,-0.21,-0.19,-0.165,-0.17,-0.155,-0.16,-0.16,-0.15,-0.135,-0.155,-0.17,-0.17,-0.155,-0.145,-0.13,-0.12,-0.135,-0.145,-0.15,-0.13,-0.125,-0.125,-0.135,-0.125,-0.105,-0.095,-0.07,-0.08,-0.105,-0.105,-0.105,-0.095,-0.065,-0.06,-0.055,-0.06,-0.05,-0.03,-0.015,-0.015,-0.015,-0.01,0.02,0.035,0.05,0.055,0.045,0.035,0.04,0.055,0.075,0.075,0.07,0.075,0.075,0.09,0.09,0.065,0.055,0.05,0.055,0.06,0.06,0.035,-0.01,-0.025,-0.04,-0.04,-0.055,-0.08,-0.1,-0.11,-0.11,-0.115,-0.12,-0.14,-0.18,-0.215,-0.2,-0.185,-0.18,-0.195,-0.195,-0.225,-0.22,-0.215,-0.22,-0.215,-0.25,-0.26,-0.245,-0.225,-0.215,-0.215,-0.235,-0.245,-0.255,-0.24,-0.24,-0.245,-0.25,-0.245,-0.245,-0.235,-0.215,-0.23,-0.24,-0.25,-0.245,-0.235,-0.205,-0.205,-0.21,-0.23,-0.21,-0.2,-0.19,-0.21,-0.225,-0.24,-0.21,-0.195,-0.18,-0.17,-0.195,-0.2,-0.205,-0.195,-0.19,-0.205,-0.205,-0.215,-0.2,-0.205,-0.175,-0.185,-0.2,-0.225,-0.235,-0.225,-0.2,-0.22,-0.22,-0.22,-0.215,-0.2,-0.19,-0.2,-0.225,-0.23,-0.22,-0.19,-0.175,-0.165,-0.165,-0.15
0.0,212.0,-0.205,-0.205,-0.21,-0.23,-0.21,-0.2,-0.19,-0.21,-0.225,-0.24,-0.21,-0.195,-0.18,-0.17,-0.195,-0.2,-0.205,-0.195,-0.19,-0.205,-0.205,-0.215,-0.2,-0.205,-0.175,-0.185,-0.2,-0.225,-0.235,-0.225,-0.2,-0.22,-0.22,-0.22,-0.215,-0.2,-0.19,-0.2,-0.225,-0.23,-0.22,-0.19,-0.175,-0.165,-0.165,-0.15,-0.125,-0.12,-0.11,-0.09,-0.09,-0.08,-0.06,-0.035,0.01,0.03,0.04,0.03,0.035,0.045,0.07,0.07,0.065,0.04,0.02,0.01,-0.005,-0.045,-0.105,-0.15,-0.175,-0.16,-0.15,-0.18,-0.215,-0.235,-0.26,-0.26,-0.25,-0.25,-0.27,-0.28,-0.275,-0.275,-0.26,-0.285,-0.3,-0.31,-0.315,-0.3,-0.285,-0.275,-0.295,-0.295,-0.295,-0.285,-0.265,-0.28,-0.28,-0.28,-0.265,-0.235,-0.2,-0.19,-0.15,-0.09,0.02,0.22,0.46,0.73,1.03,1.315,1.535,1.625,1.51,1.16,0.685,0.225,-0.125,-0.31,-0.35,-0.35,-0.315,-0.295,-0.25,-0.225,-0.215,-0.23,-0.25,-0.27,-0.25,-0.25,-0.23,-0.23,-0.25,-0.275,-0.265,-0.265,-0.24,-0.225,-0.23,-0.24,-0.25,-0.23,-0.23,-0.23,-0.245,-0.245,-0.23,-0.215,-0.2,-0.185,-0.2,-0.225,-0.225,-0.215,-0.175,-0.185,-0.185,-0.205,-0.19,-0.17,-0.16,-0.16,-0.185,-0.185,-0.175,-0.15,-0.13,-0.13,-0.14,-0.145,-0.14,-0.13,-0.105,-0.105,-0.105,-0.09,-0.09,-0.08,-0.05,-0.055,-0.075,-0.07,-0.065,-0.025,-0.005,0.005,-0.005,-0.01,0.005,0.01,0.025,0.015,0.0,-0.005,0.005,0.035,0.04,0.04,0.01,-0.01,0.0,0.0,0.005,-0.005,-0.02,-0.035,-0.05,-0.065,-0.075,-0.1,-0.14,-0.16,-0.18,-0.175,-0.175,-0.195,-0.22,-0.235,-0.245,-0.255,-0.25,-0.27,-0.28,-0.275,-0.275,-0.285,-0.26,-0.27,-0.3,-0.32,-0.315,-0.295,-0.29,-0.295,-0.315,-0.315,-0.3,-0.3,-0.275,-0.285,-0.305,-0.305,-0.295,-0.265,-0.255,-0.27,-0.29,-0.3,-0.31,-0.295,-0.28,-0.3,-0.31,-0.305,-0.295,-0.265,-0.28,-0.295,-0.31,-0.32,-0.315,-0.285,-0.27,-0.275,-0.295,-0.305,-0.33,-0.32,-0.3,-0.305,-0.31,-0.31,-0.305,-0.29,-0.285,-0.295,-0.3,-0.32,-0.32,-0.3,-0.29,-0.295,-0.31,-0.315,-0.32,-0.335,-0.31,-0.32,-0.325,-0.35,-0.32,-0.295,-0.26,-0.255,-0.24,-0.195,-0.145,-0.105
0.0,212.0,-0.31,-0.295,-0.28,-0.3,-0.31,-0.305,-0.295,-0.265,-0.28,-0.295,-0.31,-0.32,-0.315,-0.285,-0.27,-0.275,-0.295,-0.305,-0.33,-0.32,-0.3,-0.305,-0.31,-0.31,-0.305,-0.29,-0.285,-0.295,-0.3,-0.32,-0.32,-0.3,-0.29,-0.295,-0.31,-0.315,-0.32,-0.335,-0.31,-0.32,-0.325,-0.35,-0.32,-0.295,-0.26,-0.255,-0.24,-0.195,-0.145,-0.105,-0.085,-0.075,-0.1,-0.16,-0.205,-0.225,-0.175,-0.175,-0.185,-0.18,-0.16,-0.15,-0.12,-0.09,-0.1,-0.115,-0.12,-0.14,-0.16,-0.185,-0.235,-0.26,-0.25,-0.225,-0.215,-0.26,-0.3,-0.335,-0.41,-0.495,-0.515,-0.47,-0.415,-0.395,-0.42,-0.465,-0.48,-0.54,-0.615,-0.665,-0.63,-0.565,-0.53,-0.525,-0.545,-0.55,-0.55,-0.53,-0.53,-0.52,-0.52,-0.535,-0.505,-0.48,-0.46,-0.415,-0.355,-0.22,0.005,0.275,0.61,0.9,1.15,1.27,1.245,0.985,0.53,0.02,-0.4,-0.62,-0.7,-0.67,-0.625,-0.615,-0.59,-0.585,-0.575,-0.575,-0.57,-0.57,-0.59,-0.605,-0.62,-0.625,-0.63,-0.64,-0.645,-0.64,-0.62,-0.605,-0.61,-0.625,-0.635,-0.66,-0.665,-0.655,-0.63,-0.62,-0.62,-0.635,-0.63,-0.64,-0.64,-0.645,-0.65,-0.655,-0.65,-0.64,-0.63,-0.64,-0.65,-0.66,-0.655,-0.65,-0.615,-0.6,-0.62,-0.63,-0.635,-0.645,-0.625,-0.63,-0.64,-0.645,-0.62,-0.59,-0.56,-0.55,-0.565,-0.59,-0.59,-0.58,-0.545,-0.545,-0.54,-0.53,-0.535,-0.535,-0.51,-0.51,-0.525,-0.53,-0.505,-0.485,-0.465,-0.465,-0.475,-0.49,-0.5,-0.48,-0.46,-0.46,-0.475,-0.5,-0.5,-0.505,-0.505,-0.535,-0.555,-0.575,-0.585,-0.57,-0.57,-0.6,-0.615,-0.625,-0.64,-0.64,-0.645,-0.645,-0.645,-0.645,-0.64,-0.64,-0.64,-0.66,-0.68,-0.685,-0.68,-0.65,-0.64,-0.665,-0.69,-0.695,-0.685,-0.675,-0.66,-0.675,-0.675,-0.67,-0.66,-0.65,-0.64,-0.67,-0.69,-0.71,-0.69,-0.665,-0.64,-0.65,-0.655,-0.67,-0.69,-0.7,-0.695,-0.7,-0.69,-0.685,-0.66,-0.635,-0.61,-0.63,-0.645,-0.695,-0.71,-0.705,-0.68,-0.685,-0.7,-0.715,-0.74,-0.735,-0.74,-0.73,-0.71,-0.695,-0.675,-0.645,-0.61,-0.605,-0.62,-0.625,-0.595,-0.55,-0.5,-0.485,-0.49,-0.495,-0.5,-0.49,-0.5,-0.515,-0.53,-0.575,-0.6,-0.625,-0.67,-0.71,-0.745,-0.76
0.0,212.0,-0.64,-0.64,-0.66,-0.68,-0.685,-0.68,-0.65,-0.64,-0.665,-0.69,-0.695,-0.685,-0.675,-0.66,-0.675,-0.675,-0.67,-0.66,-0.65,-0.64,-0.67,-0.69,-0.71,-0.69,-0.665,-0.64,-0.65,-0.655,-0.67,-0.69,-0.7,-0.695,-0.7,-0.69,-0.685,-0.66,-0.635,-0.61,-0.63,-0.645,-0.695,-0.71,-0.705,-0.68,-0.685,-0.7,-0.715,-0.74,-0.735,-0.74,-0.73,-0.71,-0.695,-0.675,-0.645,-0.61,-0.605,-0.62,-0.625,-0.595,-0.55,-0.5,-0.485,-0.49,-0.495,-0.5,-0.49,-0.5,-0.515,-0.53,-0.575,-0.6,-0.625,-0.67,-0.71,-0.745,-0.76,-0.755,-0.74,-0.73,-0.755,-0.77,-0.78,-0.79,-0.79,-0.78,-0.79,-0.8,-0.8,-0.79,-0.785,-0.77,-0.79,-0.79,-0.81,-0.82,-0.785,-0.745,-0.745,-0.745,-0.75,-0.74,-0.735,-0.7,-0.665,-0.63,-0.53,-0.39,-0.14,0.175,0.52,0.875,1.16,1.3,1.165,0.75,0.185,-0.325,-0.655,-0.795,-0.795,-0.735,-0.71,-0.675,-0.64,-0.625,-0.605,-0.595,-0.63,-0.65,-0.68,-0.675,-0.645,-0.615,-0.6,-0.61,-0.635,-0.64,-0.625,-0.605,-0.595,-0.605,-0.615,-0.585,-0.575,-0.555,-0.565,-0.58,-0.59,-0.575,-0.54,-0.525,-0.515,-0.51,-0.525,-0.54,-0.53,-0.54,-0.535,-0.525,-0.525,-0.5,-0.48,-0.47,-0.48,-0.495,-0.495,-0.485,-0.455,-0.435,-0.435,-0.425,-0.445,-0.45,-0.44,-0.43,-0.42,-0.4,-0.395,-0.38,-0.375,-0.365,-0.365,-0.38,-0.375,-0.365,-0.33,-0.315,-0.325,-0.34,-0.335,-0.315,-0.3,-0.305,-0.3,-0.33,-0.335,-0.32,-0.3,-0.295,-0.295,-0.32,-0.315,-0.335,-0.34,-0.36,-0.405,-0.455,-0.48,-0.47,-0.45,-0.47,-0.48,-0.5,-0.535,-0.525,-0.525,-0.525,-0.53,-0.54,-0.57,-0.55,-0.56,-0.555,-0.585,-0.59,-0.58,-0.59,-0.545,-0.54,-0.565,-0.585,-0.6,-0.6,-0.595,-0.56,-0.555,-0.565,-0.565,-0.565,-0.57,-0.565,-0.565,-0.58,-0.575,-0.56,-0.54,-0.52,-0.525,-0.54,-0.555,-0.545,-0.53,-0.5,-0.495,-0.5,-0.5,-0.5,-0.52,-0.54,-0.535,-0.555,-0.54,-0.53,-0.5,-0.495,-0.51,-0.525,-0.535,-0.525,-0.505,-0.47,-0.47,-0.47,-0.45,-0.435,-0.425,-0.4,-0.39,-0.39,-0.4,-0.36,-0.31,-0.275,-0.255,-0.28,-0.285,-0.27,-0.245,-0.24,-0.245,-0.255,-0.275,-0.31,-0.33,-0.34,-0.375,-0.43,-0.455,-0.47
0.0,212.0,-0.585,-0.59,-0.58,-0.59,-0.545,-0.54,-0.565,-0.585,-0.6,-0.6,-0.595,-0.56,-0.555,-0.565,-0.565,-0.565,-0.57,-0.565,-0.565,-0.58,-0.575,-0.56,-0.54,-0.52,-0.525,-0.54,-0.555,-0.545,-0.53,-0.5,-0.495,-0.5,-0.5,-0.5,-0.52,-0.54,-0.535,-0.555,-0.54,-0.53,-0.5,-0.495,-0.51,-0.525,-0.535,-0.525,-0.505,-0.47,-0.47,-0.47,-0.45,-0.435,-0.425,-0.4,-0.39,-0.39,-0.4,-0.36,-0.31,-0.275,-0.255,-0.28,-0.285,-0.27,-0.245,-0.24,-0.245,-0.255,-0.275,-0.31,-0.33,-0.34,-0.375,-0.43,-0.455,-0.47,-0.465,-0.455,-0.475,-0.515,-0.51,-0.53,-0.51,-0.49,-0.495,-0.505,-0.5,-0.53,-0.525,-0.54,-0.56,-0.56,-0.55,-0.545,-0.51,-0.485,-0.485,-0.485,-0.495,-0.485,-0.475,-0.445,-0.445,-0.41,-0.39,-0.315,-0.2,-0.015,0.24,0.545,0.89,1.28,1.605,1.735,1.57,1.125,0.53,0.01,-0.345,-0.5,-0.49,-0.435,-0.395,-0.37,-0.365,-0.385,-0.41,-0.42,-0.43,-0.43,-0.395,-0.39,-0.395,-0.425,-0.435,-0.43,-0.415,-0.41,-0.4,-0.415,-0.425,-0.405,-0.39,-0.38,-0.38,-0.4,-0.39,-0.37,-0.36,-0.345,-0.365,-0.385,-0.395,-0.39,-0.36,-0.33,-0.33,-0.335,-0.34,-0.34,-0.335,-0.33,-0.325,-0.33,-0.32,-0.315,-0.3,-0.29,-0.29,-0.29,-0.305,-0.3,-0.27,-0.245,-0.24,-0.245,-0.24,-0.235,-0.215,-0.2,-0.2,-0.19,-0.2,-0.195,-0.165,-0.145,-0.16,-0.185,-0.18,-0.175,-0.145,-0.13,-0.145,-0.175,-0.185,-0.19,-0.19,-0.175,-0.19,-0.225,-0.25,-0.275,-0.275,-0.285,-0.305,-0.325,-0.34,-0.36,-0.355,-0.365,-0.375,-0.415,-0.415,-0.415,-0.42,-0.395,-0.395,-0.405,-0.41,-0.42,-0.415,-0.41,-0.42,-0.45,-0.435,-0.43,-0.425,-0.405,-0.425,-0.425,-0.44,-0.43,-0.4,-0.395,-0.41,-0.42,-0.435,-0.42,-0.405,-0.39,-0.41,-0.405,-0.4,-0.385,-0.375,-0.355,-0.38,-0.395,-0.41,-0.4,-0.38,-0.35,-0.345,-0.345,-0.335,-0.335,-0.32,-0.32,-0.325,-0.36,-0.38,-0.37,-0.36,-0.35,-0.335,-0.355,-0.38,-0.375,-0.34,-0.31,-0.305,-0.295,-0.29,-0.26,-0.23,-0.215,-0.21,-0.2,-0.21,-0.165,-0.135,-0.095,-0.09,-0.1,-0.1,-0.12,-0.085,-0.06,-0.08,-0.09,-0.12,-0.16,-0.215,-0.245,-0.28,-0.31,-0.315,-0.31,-0.32,-0.33
0.0,212.0,-0.42,-0.415,-0.41,-0.42,-0.45,-0.435,-0.43,-0.425,-0.405,-0.425,-0.425,-0.44,-0.43,-0.4,-0.395,-0.41,-0.42,-0.435,-0.42,-0.405,-0.39,-0.41,-0.405,-0.4,-0.385,-0.375,-0.355,-0.38,-0.395,-0.41,-0.4,-0.38,-0.35,-0.345,-0.345,-0.335,-0.335,-0.32,-0.32,-0.325,-0.36,-0.38,-0.37,-0.36,-0.35,-0.335,-0.355,-0.38,-0.375,-0.34,-0.31,-0.305,-0.295,-0.29,-0.26,-0.23,-0.215,-0.21,-0.2,-0.21,-0.165,-0.135,-0.095,-0.09,-0.1,-0.1,-0.12,-0.085,-0.06,-0.08,-0.09,-0.12,-0.16,-0.215,-0.245,-0.28,-0.31,-0.315,-0.31,-0.32,-0.33,-0.355,-0.385,-0.395,-0.385,-0.36,-0.355,-0.365,-0.375,-0.395,-0.395,-0.39,-0.375,-0.375,-0.38,-0.39,-0.375,-0.365,-0.34,-0.34,-0.35,-0.335,-0.3,-0.26,-0.205,-0.165,-0.035,0.16,0.465,0.83,1.225,1.59,1.83,1.845,1.575,1.075,0.52,0.035,-0.315,-0.41,-0.35,-0.255,-0.205,-0.22,-0.25,-0.305,-0.305,-0.285,-0.275,-0.29,-0.31,-0.315,-0.305,-0.3,-0.285,-0.295,-0.3,-0.3,-0.275,-0.27,-0.26,-0.275,-0.27,-0.295,-0.285,-0.26,-0.26,-0.25,-0.24,-0.24,-0.24,-0.23,-0.215,-0.23,-0.26,-0.245,-0.22,-0.195,-0.185,-0.22,-0.245,-0.235,-0.23,-0.2,-0.16,-0.16,-0.18,-0.19,-0.21,-0.19,-0.185,-0.16,-0.15,-0.145,-0.14,-0.115,-0.09,-0.12,-0.12,-0.135,-0.125,-0.095,-0.05,-0.035,-0.04,-0.065,-0.065,-0.07,-0.055,-0.05,-0.035,-0.045,-0.025,-0.025,-0.03,-0.045,-0.075,-0.08,-0.08,-0.08,-0.07,-0.105,-0.15,-0.175,-0.18,-0.19,-0.2,-0.21,-0.225,-0.25,-0.26,-0.255,-0.245,-0.245,-0.28,-0.305,-0.335,-0.32,-0.315,-0.315,-0.335,-0.345,-0.355,-0.365,-0.335,-0.345,-0.35,-0.36,-0.335,-0.31,-0.31,-0.33,-0.365,-0.365,-0.345,-0.325,-0.315,-0.33,-0.34,-0.355,-0.37,-0.37,-0.35,-0.345,-0.345,-0.34,-0.33,-0.315,-0.32,-0.335,-0.36,-0.355,-0.345,-0.335,-0.31,-0.3,-0.325,-0.345,-0.35,-0.34,-0.33,-0.34,-0.325,-0.325,-0.325,-0.32,-0.315,-0.335,-0.345,-0.345,-0.33,-0.295,-0.27,-0.285,-0.34,-0.355,-0.35,-0.35,-0.315,-0.31,-0.285,-0.27,-0.255,-0.215,-0.185,-0.185,-0.19,-0.195,-0.14,-0.11,-0.08,-0.08,-0.09,-0.085,-0.08,-0.06,-0.06,-0.085,-0.115,-0.13
0.0,212.0,-0.36,-0.335,-0.31,-0.31,-0.33,-0.365,-0.365,-0.345,-0.325,-0.315,-0.33,-0.34,-0.355,-0.37,-0.37,-0.35,-0.345,-0.345,-0.34,-0.33,-0.315,-0.32,-0.335,-0.36,-0.355,-0.345,-0.335,-0.31,-0.3,-0.325,-0.345,-0.35,-0.34,-0.33,-0.34,-0.325,-0.325,-0.325,-0.32,-0.315,-0.335,-0.345,-0.345,-0.33,-0.295,-0.27,-0.285,-0.34,-0.355,-0.35,-0.35,-0.315,-0.31,-0.285,-0.27,-0.255,-0.215,-0.185,-0.185,-0.19,-0.195,-0.14,-0.11,-0.08,-0.08,-0.09,-0.085,-0.08,-0.06,-0.06,-0.085,-0.115,-0.13,-0.18,-0.195,-0.23,-0.24,-0.285,-0.325,-0.34,-0.345,-0.32,-0.325,-0.36,-0.38,-0.385,-0.38,-0.375,-0.375,-0.41,-0.42,-0.41,-0.385,-0.39,-0.41,-0.43,-0.42,-0.4,-0.37,-0.36,-0.395,-0.425,-0.415,-0.38,-0.345,-0.3,-0.25,-0.115,0.085,0.415,0.805,1.21,1.55,1.745,1.68,1.31,0.745,0.195,-0.245,-0.45,-0.45,-0.365,-0.295,-0.27,-0.3,-0.31,-0.325,-0.335,-0.35,-0.35,-0.38,-0.37,-0.385,-0.365,-0.345,-0.33,-0.35,-0.385,-0.395,-0.38,-0.33,-0.285,-0.285,-0.355,-0.4,-0.36,-0.295,-0.24,-0.255,-0.31,-0.345,-0.32,-0.27,-0.225,-0.26,-0.325,-0.36,-0.37,-0.335,-0.29,-0.27,-0.28,-0.3,-0.305,-0.305,-0.28,-0.25,-0.28,-0.27,-0.255,-0.24,-0.22,-0.215,-0.2,-0.2,-0.2,-0.18,-0.165,-0.155,-0.16,-0.155,-0.13,-0.095,-0.095,-0.095,-0.09,-0.045,-0.06,-0.1,-0.135,-0.13,-0.145,-0.145,-0.14,-0.135,-0.125,-0.145,-0.145,-0.16,-0.145,-0.155,-0.15,-0.155,-0.18,-0.2,-0.19,-0.135,-0.09,-0.1,-0.17,-0.25,-0.285,-0.285,-0.285,-0.35,-0.43,-0.475,-0.47,-0.445,-0.415,-0.43,-0.45,-0.455,-0.435,-0.415,-0.39,-0.395,-0.395,-0.41,-0.385,-0.385,-0.385,-0.395,-0.425,-0.41,-0.395,-0.385,-0.375,-0.41,-0.435,-0.445,-0.415,-0.37,-0.355,-0.355,-0.37,-0.4,-0.4,-0.385,-0.365,-0.38,-0.395,-0.395,-0.37,-0.345,-0.33,-0.36,-0.395,-0.415,-0.405,-0.38,-0.375,-0.375,-0.38,-0.38,-0.375,-0.375,-0.39,-0.445,-0.48,-0.45,-0.365,-0.32,-0.32,-0.425,-0.505,-0.53,-0.49,-0.45,-0.41,-0.43,-0.425,-0.42,-0.415,-0.405,-0.415,-0.42,-0.43,-0.42,-0.4,-0.375,-0.36,-0.385,-0.4,-0.4,-0.37,-0.295,-0.235,-0.215,-0.195
0.0,212.0,-0.385,-0.375,-0.41,-0.435,-0.445,-0.415,-0.37,-0.355,-0.355,-0.37,-0.4,-0.4,-0.385,-0.365,-0.38,-0.395,-0.395,-0.37,-0.345,-0.33,-0.36,-0.395,-0.415,-0.405,-0.38,-0.375,-0.375,-0.38,-0.38,-0.375,-0.375,-0.39,-0.445,-0.48,-0.45,-0.365,-0.32,-0.32,-0.425,-0.505,-0.53,-0.49,-0.45,-0.41,-0.43,-0.425,-0.42,-0.415,-0.405,-0.415,-0.42,-0.43,-0.42,-0.4,-0.375,-0.36,-0.385,-0.4,-0.4,-0.37,-0.295,-0.235,-0.215,-0.195,-0.22,-0.265,-0.285,-0.26,-0.26,-0.27,-0.315,-0.395,-0.465,-0.48,-0.5,-0.5,-0.515,-0.54,-0.575,-0.59,-0.635,-0.635,-0.625,-0.595,-0.6,-0.615,-0.635,-0.645,-0.655,-0.71,-0.75,-0.745,-0.705,-0.695,-0.71,-0.735,-0.72,-0.69,-0.665,-0.63,-0.615,-0.595,-0.58,-0.585,-0.6,-0.58,-0.48,-0.31,-0.13,0.135,0.44,0.81,1.13,1.36,1.355,1.065,0.545,-0.03,-0.5,-0.75,-0.825,-0.76,-0.705,-0.67,-0.655,-0.655,-0.665,-0.65,-0.675,-0.71,-0.74,-0.755,-0.725,-0.695,-0.69,-0.705,-0.715,-0.715,-0.71,-0.695,-0.69,-0.715,-0.7,-0.685,-0.67,-0.645,-0.655,-0.66,-0.68,-0.675,-0.68,-0.655,-0.645,-0.675,-0.69,-0.69,-0.66,-0.63,-0.615,-0.62,-0.605,-0.585,-0.605,-0.64,-0.685,-0.645,-0.63,-0.625,-0.64,-0.655,-0.645,-0.63,-0.615,-0.6,-0.585,-0.565,-0.56,-0.57,-0.55,-0.5,-0.465,-0.465,-0.485,-0.535,-0.57,-0.565,-0.52,-0.475,-0.485,-0.46,-0.455,-0.435,-0.435,-0.43,-0.45,-0.445,-0.425,-0.41,-0.37,-0.355,-0.365,-0.42,-0.46,-0.485,-0.51,-0.51,-0.485,-0.5,-0.555,-0.61,-0.605,-0.56,-0.56,-0.59,-0.64,-0.635,-0.605,-0.565,-0.565,-0.58,-0.605,-0.61,-0.605,-0.575,-0.555,-0.555,-0.575,-0.61,-0.63,-0.625,-0.615,-0.615,-0.615,-0.575,-0.54,-0.54,-0.56,-0.585,-0.58,-0.56,-0.54,-0.52,-0.5,-0.48,-0.495,-0.495,-0.51,-0.54,-0.575,-0.57,-0.55,-0.52,-0.49,-0.465,-0.47,-0.465,-0.475,-0.46,-0.435,-0.43,-0.435,-0.445,-0.445,-0.425,-0.425,-0.44,-0.465,-0.495,-0.48,-0.44,-0.405,-0.4,-0.44,-0.465,-0.45,-0.42,-0.395,-0.36,-0.36,-0.355,-0.34,-0.31,-0.27,-0.225,-0.2,-0.185,-0.16,-0.165,-0.19,-0.185,-0.18,-0.145,-0.125,-0.09,-0.095,-0.09,-0.08,-0.08,-0.09,-0.095
