1.0,217.0,0.37,0.415,0.44,0.46,0.485,0.47,0.48,0.495,0.515,0.52,0.515,0.5,0.485,0.495,0.51,0.495,0.49,0.46,0.425,0.41,0.405,0.37,0.33,0.275,0.225,0.195,0.16,0.125,0.085,0.045,-0.015,-0.05,-0.07,-0.085,-0.135,-0.18,-0.225,-0.245,-0.26,-0.305,-0.325,-0.355,-0.395,-0.4,-0.4,-0.4,-0.42,-0.445,-0.45,-0.465,-0.44,-0.445,-0.48,-0.47,-0.495,-0.485,-0.48,-0.465,-0.48,-0.515,-0.52,-0.505,-0.51,-0.5,-0.5,-0.525,-0.525,-0.5,-0.485,-0.49,-0.49,-0.5,-0.505,-0.495,-0.48,-0.48,-0.49,-0.505,-0.515,-0.505,-0.5,-0.505,-0.53,-0.57,-0.595,-0.605,-0.61,-0.62,-0.625,-0.645,-0.66,-0.65,-0.645,-0.62,-0.59,-0.59,-0.565,-0.52,-0.45,-0.395,-0.35,-0.3,-0.23,-0.15,-0.075,0.005,0.06,0.13,0.19,0.275,0.35,0.395,0.41,0.4,0.39,0.38,0.31,0.175,-0.07,-0.395,-0.69,-0.915,-1.045,-1.08,-1.13,-1.165,-1.205,-1.22,-1.24,-1.25,-1.28,-1.33,-1.36,-1.37,-1.37,-1.34,-1.31,-1.255,-1.175,-1.07,-0.98,-0.885,-0.835,-0.805,-0.8,-0.775,-0.745,-0.735,-0.745,-0.76,-0.775,-0.75,-0.745,-0.74,-0.76,-0.755,-0.78,-0.775,-0.765,-0.77,-0.785,-0.815,-0.825,-0.815,-0.81,-0.82,-0.825,-0.845,-0.86,-0.865,-0.85,-0.86,-0.88,-0.91,-0.92,-0.93,-0.94,-0.95,-0.975,-1.015,-1.035,-1.03,-1.04,-1.06,-1.08,-1.085,-1.12,-1.14,-1.145,-1.155,-1.17,-1.195,-1.215,-1.225,-1.23,-1.225,-1.245,-1.25,-1.265,-1.275,-1.26,-1.245,-1.245,-1.24,-1.23,-1.23,-1.195,-1.185,-1.175,-1.185,-1.18,-1.15,-1.135,-1.11,-1.08,-1.055,-1.06,-1.02,-0.975,-0.96,-0.945,-0.945,-0.94,-0.905,-0.88,-0.845,-0.835,-0.815,-0.81,-0.785,-0.75,-0.725,-0.72,-0.73,-0.72,-0.69,-0.65,-0.63,-0.62,-0.62,-0.62,-0.595,-0.565,-0.55,-0.56,-0.565,-0.545,-0.52,-0.505,-0.48,-0.495,-0.51,-0.485,-0.46,-0.435,-0.425,-0.435,-0.455,-0.45,-0.45,-0.425,-0.43,-0.43,-0.44,-0.435,-0.41,-0.38,-0.365,-0.375,-0.385,-0.38,-0.36,-0.365,-0.34,-0.345,-0.345,-0.345,-0.345,-0.325,-0.325,-0.32,-0.34,-0.34,-0.325,-0.31,-0.305,-0.3,-0.315,-0.32,-0.3,-0.29,-0.28,-0.29,-0.31,-0.31,-0.3,-0.29,-0.3,-0.295,-0.315
1.0,217.0,-0.9,-0.92,-0.935,-0.94,-0.96,-0.98,-0.99,-0.985,-0.98,-0.985,-0.99,-1.005,-0.99,-0.975,-0.95,-0.93,-0.925,-0.915,-0.895,-0.85,-0.815,-0.78,-0.755,-0.735,-0.715,-0.68,-0.64,-0.63,-0.61,-0.59,-0.575,-0.53,-0.5,-0.465,-0.455,-0.435,-0.42,-0.395,-0.365,-0.345,-0.345,-0.34,-0.325,-0.325,-0.285,-0.27,-0.285,-0.29,-0.285,-0.265,-0.255,-0.23,-0.235,-0.23,-0.22,-0.2,-0.18,-0.19,-0.19,-0.205,-0.205,-0.17,-0.155,-0.155,-0.175,-0.185,-0.165,-0.155,-0.14,-0.12,-0.13,-0.135,-0.14,-0.14,-0.12,-0.11,-0.12,-0.115,-0.095,-0.07,-0.04,-0.01,-0.005,-0.005,0.035,0.09,0.14,0.23,0.295,0.36,0.465,0.57,0.67,0.745,0.8,0.855,0.93,1.035,1.14,1.225,1.26,1.315,1.395,1.52,1.64,1.77,1.835,1.88,1.925,1.995,2.09,2.17,2.22,2.23,2.21,2.15,2.03,1.79,1.385,0.915,0.49,0.19,0.035,-0.025,-0.07,-0.14,-0.225,-0.27,-0.29,-0.345,-0.41,-0.455,-0.465,-0.475,-0.475,-0.485,-0.5,-0.525,-0.54,-0.54,-0.55,-0.565,-0.575,-0.585,-0.62,-0.62,-0.605,-0.61,-0.63,-0.65,-0.65,-0.66,-0.65,-0.67,-0.71,-0.73,-0.74,-0.745,-0.755,-0.77,-0.795,-0.83,-0.86,-0.905,-0.915,-0.93,-0.96,-1.0,-1.02,-1.03,-1.04,-1.055,-1.105,-1.125,-1.155,-1.175,-1.195,-1.225,-1.27,-1.295,-1.33,-1.36,-1.375,-1.385,-1.425,-1.445,-1.475,-1.48,-1.485,-1.51,-1.54,-1.575,-1.605,-1.6,-1.615,-1.615,-1.63,-1.65,-1.66,-1.65,-1.635,-1.63,-1.645,-1.66,-1.635,-1.635,-1.605,-1.59,-1.575,-1.58,-1.56,-1.535,-1.49,-1.455,-1.44,-1.425,-1.4,-1.34,-1.305,-1.26,-1.245,-1.215,-1.195,-1.145,-1.105,-1.07,-1.05,-1.03,-0.98,-0.945,-0.885,-0.865,-0.84,-0.82,-0.78,-0.735,-0.69,-0.67,-0.64,-0.63,-0.605,-0.555,-0.52,-0.485,-0.48,-0.48,-0.455,-0.435,-0.39,-0.36,-0.34,-0.335,-0.315,-0.28,-0.255,-0.245,-0.24,-0.24,-0.22,-0.19,-0.155,-0.145,-0.16,-0.15,-0.15,-0.11,-0.08,-0.075,-0.08,-0.095,-0.075,-0.065,-0.04,-0.02,-0.03,-0.035,-0.04,-0.02,0.0,0.0,-0.02,-0.005,-0.005,-0.005,0.025,0.04,0.025,0.015,0.02,0.04,0.045,0.035,0.02,0.015,0.0,0.03,0.05,0.055,0.015,0.005
1.0,217.0,-0.555,-0.575,-0.56,-0.55,-0.545,-0.515,-0.5,-0.49,-0.485,-0.47,-0.45,-0.41,-0.38,-0.37,-0.355,-0.34,-0.315,-0.3,-0.27,-0.255,-0.26,-0.25,-0.215,-0.19,-0.17,-0.165,-0.18,-0.165,-0.135,-0.095,-0.08,-0.07,-0.065,-0.06,-0.035,-0.02,-0.005,0.0,-0.01,0.015,0.03,0.04,0.045,0.04,0.045,0.035,0.06,0.065,0.055,0.07,0.06,0.055,0.08,0.09,0.095,0.085,0.07,0.07,0.09,0.1,0.1,0.09,0.07,0.075,0.08,0.07,0.08,0.065,0.06,0.035,0.055,0.065,0.08,0.07,0.06,0.075,0.095,0.105,0.115,0.12,0.135,0.15,0.195,0.225,0.275,0.33,0.38,0.465,0.565,0.655,0.745,0.795,0.865,0.905,0.96,1.035,1.12,1.205,1.275,1.325,1.395,1.48,1.59,1.68,1.78,1.84,1.92,1.98,2.045,2.115,2.18,2.225,2.255,2.275,2.235,2.16,2.025,1.805,1.48,1.07,0.655,0.35,0.16,0.095,0.06,0.0,-0.085,-0.145,-0.215,-0.27,-0.28,-0.29,-0.32,-0.34,-0.37,-0.39,-0.405,-0.405,-0.415,-0.43,-0.49,-0.495,-0.505,-0.51,-0.52,-0.555,-0.575,-0.56,-0.57,-0.555,-0.58,-0.6,-0.625,-0.64,-0.655,-0.67,-0.68,-0.72,-0.74,-0.75,-0.775,-0.78,-0.79,-0.825,-0.86,-0.885,-0.91,-0.925,-0.965,-1.0,-1.035,-1.07,-1.085,-1.105,-1.135,-1.19,-1.235,-1.255,-1.275,-1.29,-1.31,-1.355,-1.39,-1.41,-1.43,-1.445,-1.46,-1.51,-1.545,-1.565,-1.59,-1.59,-1.595,-1.615,-1.64,-1.65,-1.645,-1.645,-1.63,-1.645,-1.66,-1.655,-1.645,-1.61,-1.595,-1.59,-1.58,-1.555,-1.525,-1.49,-1.45,-1.43,-1.41,-1.385,-1.345,-1.29,-1.275,-1.23,-1.21,-1.17,-1.125,-1.085,-1.04,-1.02,-0.985,-0.965,-0.9,-0.845,-0.815,-0.78,-0.77,-0.74,-0.69,-0.625,-0.605,-0.585,-0.57,-0.555,-0.51,-0.47,-0.445,-0.42,-0.42,-0.39,-0.325,-0.3,-0.29,-0.26,-0.25,-0.235,-0.19,-0.17,-0.15,-0.15,-0.145,-0.13,-0.11,-0.09,-0.07,-0.07,-0.07,-0.065,-0.025,-0.005,-0.01,-0.015,-0.035,-0.04,0.0,0.02,0.02,0.02,0.01,-0.005,0.025,0.045,0.045,0.05,0.035,0.025,0.02,0.04,0.04,0.03,0.025,0.03,0.035,0.055,0.045,0.05,0.05,0.065,0.08,0.11,0.095,0.09,0.08,0.085,0.085,0.1
1.0,217.0,-0.74,-0.735,-0.725,-0.715,-0.68,-0.645,-0.62,-0.62,-0.61,-0.59,-0.56,-0.545,-0.495,-0.495,-0.48,-0.45,-0.4,-0.395,-0.37,-0.365,-0.36,-0.34,-0.31,-0.3,-0.29,-0.285,-0.285,-0.29,-0.265,-0.25,-0.245,-0.24,-0.26,-0.26,-0.245,-0.225,-0.21,-0.22,-0.22,-0.225,-0.225,-0.2,-0.19,-0.205,-0.23,-0.235,-0.205,-0.19,-0.195,-0.21,-0.2,-0.21,-0.195,-0.175,-0.19,-0.21,-0.225,-0.23,-0.215,-0.195,-0.19,-0.195,-0.2,-0.205,-0.185,-0.18,-0.185,-0.21,-0.22,-0.21,-0.2,-0.185,-0.19,-0.2,-0.195,-0.18,-0.16,-0.155,-0.14,-0.135,-0.125,-0.09,-0.04,0.02,0.075,0.125,0.2,0.28,0.36,0.445,0.505,0.555,0.6,0.635,0.7,0.78,0.85,0.91,0.965,1.02,1.09,1.18,1.28,1.38,1.475,1.54,1.59,1.665,1.73,1.805,1.875,1.93,1.97,1.98,1.96,1.89,1.75,1.52,1.185,0.765,0.345,0.025,-0.15,-0.235,-0.275,-0.32,-0.395,-0.47,-0.54,-0.58,-0.595,-0.635,-0.66,-0.675,-0.705,-0.715,-0.735,-0.73,-0.75,-0.765,-0.805,-0.815,-0.815,-0.805,-0.805,-0.825,-0.85,-0.86,-0.86,-0.865,-0.885,-0.905,-0.92,-0.94,-0.945,-0.945,-0.955,-0.975,-1.015,-1.03,-1.03,-1.04,-1.065,-1.09,-1.125,-1.15,-1.165,-1.185,-1.205,-1.25,-1.28,-1.305,-1.32,-1.33,-1.36,-1.39,-1.43,-1.455,-1.485,-1.51,-1.52,-1.55,-1.6,-1.625,-1.64,-1.655,-1.675,-1.705,-1.715,-1.735,-1.755,-1.75,-1.75,-1.78,-1.8,-1.81,-1.805,-1.795,-1.795,-1.815,-1.84,-1.835,-1.82,-1.79,-1.8,-1.795,-1.795,-1.79,-1.765,-1.725,-1.705,-1.705,-1.695,-1.68,-1.625,-1.59,-1.545,-1.53,-1.515,-1.49,-1.45,-1.4,-1.355,-1.325,-1.31,-1.28,-1.225,-1.19,-1.175,-1.155,-1.145,-1.095,-1.06,-1.01,-0.975,-0.965,-0.95,-0.925,-0.895,-0.86,-0.835,-0.805,-0.805,-0.77,-0.73,-0.69,-0.68,-0.675,-0.665,-0.64,-0.62,-0.605,-0.605,-0.62,-0.61,-0.595,-0.57,-0.54,-0.53,-0.53,-0.535,-0.51,-0.49,-0.47,-0.465,-0.45,-0.47,-0.46,-0.44,-0.415,-0.405,-0.41,-0.41,-0.39,-0.38,-0.34,-0.33,-0.345,-0.36,-0.365,-0.35,-0.33,-0.315,-0.31,-0.315,-0.31,-0.285,-0.275,-0.27,-0.295,-0.3,-0.305,-0.305,-0.3,-0.325,-0.33,-0.335,-0.32,-0.3,-0.29
1.0,217.0,-0.85,-0.86,-0.86,-0.84,-0.825,-0.82,-0.82,-0.82,-0.785,-0.76,-0.735,-0.735,-0.725,-0.73,-0.7,-0.69,-0.66,-0.655,-0.655,-0.665,-0.63,-0.58,-0.575,-0.54,-0.55,-0.54,-0.55,-0.55,-0.51,-0.51,-0.505,-0.505,-0.495,-0.46,-0.44,-0.41,-0.425,-0.425,-0.435,-0.41,-0.395,-0.39,-0.4,-0.425,-0.405,-0.38,-0.36,-0.36,-0.38,-0.375,-0.39,-0.38,-0.355,-0.35,-0.365,-0.37,-0.35,-0.34,-0.32,-0.34,-0.345,-0.355,-0.375,-0.37,-0.36,-0.375,-0.365,-0.385,-0.375,-0.365,-0.335,-0.345,-0.35,-0.37,-0.37,-0.365,-0.34,-0.325,-0.325,-0.345,-0.335,-0.33,-0.325,-0.285,-0.27,-0.265,-0.225,-0.175,-0.1,-0.03,0.055,0.14,0.23,0.31,0.4,0.435,0.5,0.55,0.635,0.715,0.81,0.88,0.96,1.025,1.155,1.285,1.445,1.54,1.6,1.675,1.77,1.895,1.99,2.04,2.025,1.96,1.835,1.61,1.235,0.72,0.22,-0.115,-0.26,-0.325,-0.36,-0.43,-0.535,-0.62,-0.655,-0.67,-0.675,-0.705,-0.74,-0.77,-0.795,-0.805,-0.805,-0.82,-0.825,-0.84,-0.88,-0.87,-0.88,-0.87,-0.89,-0.925,-0.945,-0.95,-0.935,-0.955,-0.99,-1.035,-1.06,-1.06,-1.035,-1.045,-1.05,-1.08,-1.115,-1.15,-1.17,-1.19,-1.205,-1.24,-1.285,-1.285,-1.28,-1.31,-1.34,-1.385,-1.42,-1.44,-1.465,-1.505,-1.53,-1.575,-1.595,-1.61,-1.635,-1.665,-1.7,-1.75,-1.77,-1.785,-1.81,-1.815,-1.845,-1.87,-1.885,-1.9,-1.895,-1.9,-1.91,-1.94,-1.935,-1.935,-1.915,-1.89,-1.885,-1.89,-1.875,-1.85,-1.82,-1.79,-1.785,-1.77,-1.745,-1.72,-1.68,-1.66,-1.635,-1.62,-1.575,-1.525,-1.485,-1.46,-1.415,-1.395,-1.375,-1.315,-1.3,-1.265,-1.23,-1.2,-1.15,-1.115,-1.07,-1.04,-1.035,-1.03,-0.985,-0.95,-0.91,-0.905,-0.89,-0.875,-0.86,-0.8,-0.755,-0.73,-0.715,-0.71,-0.695,-0.665,-0.62,-0.595,-0.59,-0.585,-0.575,-0.545,-0.505,-0.5,-0.495,-0.505,-0.48,-0.465,-0.435,-0.425,-0.425,-0.425,-0.415,-0.39,-0.365,-0.365,-0.36,-0.355,-0.355,-0.34,-0.325,-0.32,-0.325,-0.33,-0.325,-0.32,-0.315,-0.32,-0.315,-0.31,-0.3,-0.3,-0.275,-0.275,-0.275,-0.295,-0.29,-0.275,-0.255,-0.275,-0.265,-0.275,-0.27,-0.27,-0.245,-0.24,-0.25,-0.265,-0.275,-0.26,-0.24,-0.235
1.0,217.0,-0.63,-0.62,-0.61,-0.595,-0.565,-0.535,-0.51,-0.52,-0.5,-0.475,-0.45,-0.41,-0.4,-0.395,-0.38,-0.37,-0.34,-0.32,-0.3,-0.295,-0.305,-0.28,-0.24,-0.215,-0.195,-0.2,-0.2,-0.19,-0.16,-0.13,-0.115,-0.12,-0.12,-0.11,-0.095,-0.08,-0.065,-0.09,-0.085,-0.085,-0.065,-0.05,-0.05,-0.06,-0.065,-0.085,-0.06,-0.06,-0.045,-0.05,-0.075,-0.065,-0.065,-0.06,-0.06,-0.065,-0.09,-0.09,-0.07,-0.065,-0.07,-0.085,-0.095,-0.1,-0.105,-0.085,-0.07,-0.09,-0.09,-0.095,-0.09,-0.06,-0.05,-0.055,-0.065,-0.06,-0.04,-0.015,-0.005,-0.005,-0.005,0.005,0.035,0.07,0.085,0.125,0.17,0.235,0.33,0.42,0.515,0.565,0.62,0.68,0.75,0.825,0.9,0.98,1.055,1.135,1.21,1.295,1.375,1.465,1.585,1.71,1.81,1.875,1.94,1.99,2.075,2.145,2.215,2.255,2.24,2.195,2.08,1.895,1.57,1.175,0.73,0.37,0.12,0.02,-0.03,-0.065,-0.135,-0.21,-0.285,-0.335,-0.375,-0.385,-0.415,-0.455,-0.48,-0.49,-0.5,-0.51,-0.495,-0.515,-0.535,-0.55,-0.56,-0.57,-0.58,-0.605,-0.615,-0.63,-0.64,-0.645,-0.665,-0.675,-0.7,-0.73,-0.745,-0.745,-0.755,-0.77,-0.815,-0.83,-0.83,-0.84,-0.86,-0.89,-0.945,-0.95,-0.96,-0.985,-0.99,-1.025,-1.065,-1.095,-1.115,-1.12,-1.14,-1.16,-1.19,-1.235,-1.265,-1.285,-1.31,-1.345,-1.38,-1.41,-1.42,-1.45,-1.455,-1.48,-1.51,-1.54,-1.54,-1.545,-1.555,-1.585,-1.605,-1.615,-1.625,-1.62,-1.625,-1.645,-1.66,-1.655,-1.64,-1.615,-1.615,-1.61,-1.605,-1.6,-1.57,-1.55,-1.53,-1.52,-1.51,-1.475,-1.44,-1.39,-1.355,-1.34,-1.305,-1.285,-1.235,-1.18,-1.14,-1.11,-1.085,-1.06,-1.01,-0.965,-0.925,-0.9,-0.895,-0.865,-0.82,-0.77,-0.75,-0.73,-0.715,-0.695,-0.635,-0.595,-0.575,-0.565,-0.56,-0.54,-0.515,-0.475,-0.455,-0.435,-0.43,-0.415,-0.395,-0.36,-0.35,-0.355,-0.36,-0.355,-0.315,-0.27,-0.27,-0.265,-0.27,-0.25,-0.23,-0.21,-0.21,-0.21,-0.21,-0.205,-0.18,-0.18,-0.17,-0.15,-0.14,-0.145,-0.115,-0.085,-0.055,-0.06,-0.065,-0.065,-0.035,-0.02,-0.02,-0.02,-0.05,-0.045,-0.02,-0.01,0.0,-0.005,-0.025,-0.025,-0.01,0.015,0.03,0.025,0.01,0.005,0.01,0.025
1.0,217.0,0.545,0.515,0.47,0.41,0.34,0.3,0.26,0.225,0.17,0.1,0.065,0.03,0.01,-0.005,-0.045,-0.07,-0.11,-0.12,-0.125,-0.135,-0.155,-0.18,-0.19,-0.195,-0.2,-0.205,-0.215,-0.24,-0.255,-0.25,-0.24,-0.225,-0.24,-0.25,-0.25,-0.26,-0.25,-0.24,-0.24,-0.275,-0.265,-0.28,-0.27,-0.255,-0.245,-0.26,-0.28,-0.275,-0.26,-0.245,-0.26,-0.265,-0.29,-0.295,-0.275,-0.265,-0.27,-0.295,-0.3,-0.295,-0.295,-0.275,-0.29,-0.32,-0.315,-0.325,-0.315,-0.3,-0.32,-0.325,-0.34,-0.325,-0.315,-0.295,-0.285,-0.305,-0.31,-0.305,-0.295,-0.25,-0.245,-0.245,-0.225,-0.19,-0.155,-0.075,-0.02,0.055,0.105,0.19,0.26,0.345,0.42,0.45,0.495,0.58,0.675,0.775,0.87,0.945,1.005,1.095,1.21,1.325,1.445,1.545,1.61,1.69,1.76,1.86,1.95,2.01,2.025,2.02,1.99,1.92,1.745,1.475,1.055,0.595,0.185,-0.08,-0.245,-0.33,-0.385,-0.445,-0.51,-0.565,-0.615,-0.68,-0.715,-0.74,-0.765,-0.765,-0.785,-0.82,-0.845,-0.85,-0.845,-0.84,-0.87,-0.88,-0.895,-0.905,-0.91,-0.905,-0.915,-0.95,-0.965,-0.975,-0.98,-0.975,-1.005,-1.03,-1.055,-1.07,-1.085,-1.08,-1.105,-1.14,-1.165,-1.185,-1.195,-1.21,-1.235,-1.255,-1.285,-1.305,-1.315,-1.335,-1.355,-1.385,-1.42,-1.445,-1.465,-1.49,-1.515,-1.555,-1.595,-1.625,-1.655,-1.645,-1.67,-1.72,-1.74,-1.77,-1.785,-1.8,-1.835,-1.855,-1.89,-1.905,-1.91,-1.91,-1.93,-1.945,-1.955,-1.97,-1.97,-1.945,-1.95,-1.98,-1.975,-1.97,-1.945,-1.94,-1.915,-1.91,-1.91,-1.9,-1.86,-1.83,-1.815,-1.8,-1.795,-1.74,-1.715,-1.67,-1.63,-1.615,-1.605,-1.56,-1.515,-1.475,-1.45,-1.42,-1.39,-1.35,-1.31,-1.255,-1.245,-1.215,-1.2,-1.165,-1.12,-1.075,-1.04,-1.025,-1.01,-0.955,-0.91,-0.875,-0.855,-0.825,-0.815,-0.795,-0.755,-0.72,-0.695,-0.69,-0.67,-0.635,-0.63,-0.595,-0.585,-0.56,-0.56,-0.54,-0.51,-0.49,-0.47,-0.48,-0.48,-0.46,-0.42,-0.395,-0.38,-0.385,-0.37,-0.375,-0.35,-0.325,-0.31,-0.315,-0.325,-0.3,-0.31,-0.285,-0.29,-0.305,-0.285,-0.27,-0.275,-0.26,-0.285,-0.28,-0.295,-0.28,-0.265,-0.255,-0.255,-0.27,-0.265,-0.265,-0.24,-0.23,-0.235,-0.235,-0.235,-0.24
1.0,217.0,-0.95,-0.975,-1.005,-1.015,-1.035,-1.065,-1.11,-1.12,-1.13,-1.13,-1.14,-1.18,-1.2,-1.205,-1.185,-1.19,-1.165,-1.165,-1.16,-1.14,-1.105,-1.075,-1.05,-1.045,-1.04,-1.02,-0.985,-0.925,-0.885,-0.855,-0.835,-0.805,-0.77,-0.725,-0.7,-0.7,-0.685,-0.66,-0.635,-0.58,-0.545,-0.54,-0.535,-0.54,-0.525,-0.48,-0.47,-0.455,-0.47,-0.44,-0.42,-0.4,-0.37,-0.37,-0.365,-0.375,-0.345,-0.335,-0.305,-0.315,-0.325,-0.32,-0.3,-0.285,-0.28,-0.295,-0.305,-0.305,-0.295,-0.265,-0.25,-0.25,-0.255,-0.275,-0.255,-0.24,-0.23,-0.22,-0.225,-0.215,-0.18,-0.13,-0.115,-0.055,-0.035,0.005,0.07,0.15,0.24,0.315,0.38,0.46,0.535,0.615,0.67,0.735,0.795,0.84,0.93,1.01,1.07,1.13,1.17,1.245,1.34,1.445,1.525,1.565,1.59,1.62,1.67,1.75,1.785,1.785,1.755,1.685,1.63,1.5,1.29,0.945,0.57,0.265,0.065,-0.03,-0.085,-0.15,-0.23,-0.315,-0.375,-0.425,-0.45,-0.5,-0.53,-0.56,-0.575,-0.585,-0.58,-0.605,-0.62,-0.64,-0.64,-0.645,-0.645,-0.645,-0.67,-0.69,-0.68,-0.69,-0.71,-0.735,-0.765,-0.785,-0.8,-0.8,-0.815,-0.84,-0.87,-0.9,-0.895,-0.905,-0.91,-0.955,-0.985,-1.01,-1.01,-1.035,-1.055,-1.095,-1.135,-1.165,-1.18,-1.21,-1.23,-1.275,-1.32,-1.355,-1.36,-1.375,-1.41,-1.455,-1.5,-1.535,-1.545,-1.575,-1.59,-1.62,-1.66,-1.7,-1.72,-1.72,-1.74,-1.765,-1.805,-1.845,-1.835,-1.835,-1.845,-1.875,-1.89,-1.91,-1.91,-1.905,-1.895,-1.905,-1.915,-1.895,-1.88,-1.84,-1.82,-1.8,-1.79,-1.775,-1.74,-1.69,-1.655,-1.62,-1.59,-1.545,-1.495,-1.44,-1.41,-1.375,-1.33,-1.29,-1.245,-1.175,-1.15,-1.1,-1.095,-1.055,-0.98,-0.93,-0.87,-0.83,-0.81,-0.75,-0.72,-0.65,-0.6,-0.585,-0.55,-0.53,-0.47,-0.42,-0.39,-0.38,-0.37,-0.38,-0.345,-0.31,-0.28,-0.275,-0.265,-0.265,-0.24,-0.215,-0.18,-0.175,-0.175,-0.18,-0.16,-0.135,-0.13,-0.135,-0.145,-0.15,-0.12,-0.095,-0.075,-0.085,-0.08,-0.09,-0.1,-0.085,-0.065,-0.055,-0.055,-0.07,-0.06,-0.06,-0.04,-0.03,-0.08,-0.055,-0.045,-0.025,-0.035,-0.04,-0.05,-0.065,-0.03,-0.01,0.0,0.005,0.005,0.005,0.01,0.015,0.04,0.015
0.0,217.0,0.025,0.05,0.07,0.085,0.075,0.08,0.09,0.12,0.135,0.105,0.095,0.09,0.09,0.105,0.11,0.095,0.08,0.065,0.075,0.09,0.1,0.09,0.07,0.075,0.075,0.1,0.1,0.07,0.07,0.065,0.05,0.075,0.075,0.06,0.055,0.03,0.045,0.06,0.07,0.05,0.035,0.03,0.05,0.06,0.07,0.06,0.05,0.055,0.06,0.095,0.095,0.1,0.09,0.105,0.1,0.085,0.085,0.06,0.04,0.04,0.045,0.06,0.065,0.06,0.04,0.035,0.035,0.055,0.055,0.05,0.02,0.015,0.02,0.03,0.015,0.01,-0.005,0.0,-0.005,-0.01,-0.005,0.0,-0.01,-0.02,-0.01,-0.01,0.015,-0.005,-0.01,-0.005,0.005,0.035,0.035,0.015,0.005,0.015,0.01,0.035,0.05,0.06,0.07,0.09,0.14,0.205,0.26,0.295,0.35,0.49,0.645,0.855,1.055,1.19,1.265,1.27,1.225,1.105,0.975,0.765,0.485,0.15,-0.17,-0.35,-0.395,-0.34,-0.28,-0.22,-0.165,-0.14,-0.13,-0.155,-0.17,-0.19,-0.175,-0.16,-0.165,-0.175,-0.185,-0.185,-0.19,-0.175,-0.16,-0.175,-0.18,-0.18,-0.175,-0.165,-0.165,-0.15,-0.155,-0.15,-0.13,-0.11,-0.12,-0.145,-0.16,-0.175,-0.18,-0.185,-0.185,-0.195,-0.215,-0.215,-0.23,-0.225,-0.21,-0.23,-0.25,-0.255,-0.27,-0.26,-0.28,-0.305,-0.32,-0.345,-0.35,-0.345,-0.35,-0.37,-0.385,-0.415,-0.42,-0.41,-0.405,-0.44,-0.475,-0.5,-0.505,-0.52,-0.52,-0.535,-0.57,-0.6,-0.615,-0.64,-0.655,-0.685,-0.72,-0.765,-0.795,-0.815,-0.825,-0.865,-0.895,-0.91,-0.925,-0.91,-0.91,-0.925,-0.935,-0.935,-0.93,-0.915,-0.895,-0.885,-0.87,-0.845,-0.805,-0.755,-0.74,-0.695,-0.675,-0.63,-0.58,-0.525,-0.475,-0.445,-0.435,-0.4,-0.355,-0.315,-0.285,-0.28,-0.265,-0.25,-0.22,-0.195,-0.18,-0.165,-0.16,-0.155,-0.13,-0.1,-0.07,-0.09,-0.095,-0.085,-0.075,-0.075,-0.055,-0.06,-0.065,-0.08,-0.06,-0.04,-0.005,-0.03,-0.025,-0.03,-0.025,-0.015,0.005,0.0,-0.01,-0.02,-0.015,-0.015,-0.015,-0.005,-0.025,-0.04,-0.015,0.005,0.005,0.0,-0.03,-0.04,-0.03,-0.015,0.005,0.01,0.005,-0.005,0.015,0.015,0.025,0.03,0.01,0.0,0.02,0.02,0.045,0.04,0.045,0.05,0.055,0.07,0.075,0.07,0.05,0.06
0.0,217.0,-0.25,-0.235,-0.225,-0.245,-0.255,-0.245,-0.225,-0.215,-0.225,-0.22,-0.23,-0.21,-0.205,-0.205,-0.195,-0.2,-0.21,-0.195,-0.205,-0.2,-0.2,-0.215,-0.225,-0.225,-0.2,-0.195,-0.2,-0.225,-0.235,-0.23,-0.19,-0.175,-0.18,-0.21,-0.205,-0.21,-0.2,-0.19,-0.19,-0.225,-0.225,-0.21,-0.19,-0.185,-0.19,-0.205,-0.215,-0.215,-0.185,-0.195,-0.2,-0.23,-0.215,-0.225,-0.205,-0.2,-0.2,-0.215,-0.23,-0.22,-0.205,-0.22,-0.215,-0.235,-0.22,-0.21,-0.195,-0.195,-0.2,-0.225,-0.235,-0.215,-0.21,-0.195,-0.2,-0.21,-0.23,-0.23,-0.215,-0.21,-0.2,-0.215,-0.215,-0.21,-0.185,-0.195,-0.185,-0.21,-0.21,-0.19,-0.18,-0.14,-0.145,-0.16,-0.165,-0.16,-0.15,-0.125,-0.115,-0.135,-0.115,-0.07,-0.02,0.035,0.065,0.12,0.225,0.39,0.575,0.76,0.885,0.985,1.045,1.06,1.04,0.96,0.825,0.645,0.42,0.17,-0.115,-0.355,-0.56,-0.625,-0.59,-0.505,-0.43,-0.365,-0.345,-0.345,-0.36,-0.355,-0.33,-0.33,-0.32,-0.345,-0.34,-0.32,-0.305,-0.29,-0.295,-0.305,-0.31,-0.295,-0.285,-0.285,-0.275,-0.3,-0.3,-0.315,-0.31,-0.3,-0.305,-0.33,-0.33,-0.33,-0.325,-0.33,-0.33,-0.355,-0.36,-0.345,-0.34,-0.345,-0.37,-0.385,-0.395,-0.395,-0.385,-0.39,-0.4,-0.42,-0.42,-0.43,-0.435,-0.43,-0.445,-0.46,-0.475,-0.46,-0.45,-0.45,-0.455,-0.48,-0.5,-0.505,-0.5,-0.495,-0.51,-0.525,-0.54,-0.565,-0.55,-0.56,-0.57,-0.605,-0.645,-0.63,-0.645,-0.66,-0.69,-0.72,-0.755,-0.765,-0.78,-0.81,-0.84,-0.875,-0.905,-0.92,-0.93,-0.94,-0.98,-1.015,-1.025,-1.025,-1.06,-1.055,-1.075,-1.07,-1.08,-1.065,-1.055,-1.03,-1.03,-1.01,-0.99,-0.97,-0.935,-0.895,-0.855,-0.83,-0.8,-0.765,-0.725,-0.68,-0.665,-0.645,-0.62,-0.585,-0.54,-0.49,-0.47,-0.455,-0.425,-0.395,-0.36,-0.32,-0.33,-0.33,-0.315,-0.285,-0.27,-0.25,-0.26,-0.25,-0.25,-0.24,-0.21,-0.205,-0.2,-0.22,-0.22,-0.22,-0.185,-0.17,-0.175,-0.15,-0.155,-0.12,-0.11,-0.085,-0.09,-0.1,-0.1,-0.095,-0.06,-0.035,-0.03,-0.02,-0.015,0.035,0.075,0.115,0.175,0.225,0.295,0.38,0.485,0.565,0.63,0.7,0.74,0.81,0.885,0.96,1.025,1.06,1.135,1.2
1.0,217.0,-0.645,-0.66,-0.69,-0.72,-0.755,-0.765,-0.78,-0.81,-0.84,-0.875,-0.905,-0.92,-0.93,-0.94,-0.98,-1.015,-1.025,-1.025,-1.06,-1.055,-1.075,-1.07,-1.08,-1.065,-1.055,-1.03,-1.03,-1.01,-0.99,-0.97,-0.935,-0.895,-0.855,-0.83,-0.8,-0.765,-0.725,-0.68,-0.665,-0.645,-0.62,-0.585,-0.54,-0.49,-0.47,-0.455,-0.425,-0.395,-0.36,-0.32,-0.33,-0.33,-0.315,-0.285,-0.27,-0.25,-0.26,-0.25,-0.25,-0.24,-0.21,-0.205,-0.2,-0.22,-0.22,-0.22,-0.185,-0.17,-0.175,-0.15,-0.155,-0.12,-0.11,-0.085,-0.09,-0.1,-0.1,-0.095,-0.06,-0.035,-0.03,-0.02,-0.015,0.035,0.075,0.115,0.175,0.225,0.295,0.38,0.485,0.565,0.63,0.7,0.74,0.81,0.885,0.96,1.025,1.06,1.135,1.2,1.265,1.34,1.43,1.51,1.595,1.66,1.72,1.74,1.77,1.795,1.815,1.835,1.845,1.815,1.735,1.58,1.31,0.95,0.575,0.31,0.13,0.005,-0.05,-0.1,-0.15,-0.21,-0.285,-0.355,-0.38,-0.43,-0.46,-0.475,-0.47,-0.5,-0.525,-0.54,-0.53,-0.52,-0.545,-0.55,-0.585,-0.575,-0.58,-0.59,-0.61,-0.64,-0.66,-0.655,-0.65,-0.675,-0.68,-0.715,-0.73,-0.74,-0.74,-0.75,-0.775,-0.805,-0.83,-0.855,-0.855,-0.865,-0.89,-0.935,-0.945,-0.98,-0.985,-0.985,-1.015,-1.055,-1.085,-1.085,-1.1,-1.125,-1.165,-1.21,-1.24,-1.245,-1.26,-1.28,-1.32,-1.35,-1.385,-1.405,-1.415,-1.44,-1.49,-1.54,-1.55,-1.56,-1.57,-1.585,-1.61,-1.64,-1.665,-1.66,-1.655,-1.665,-1.685,-1.695,-1.695,-1.685,-1.67,-1.66,-1.66,-1.655,-1.65,-1.63,-1.605,-1.575,-1.565,-1.54,-1.525,-1.475,-1.435,-1.39,-1.36,-1.345,-1.3,-1.235,-1.18,-1.13,-1.09,-1.05,-1.015,-0.97,-0.93,-0.87,-0.835,-0.79,-0.775,-0.715,-0.655,-0.62,-0.59,-0.575,-0.53,-0.495,-0.465,-0.425,-0.4,-0.385,-0.37,-0.35,-0.31,-0.29,-0.26,-0.25,-0.24,-0.22,-0.2,-0.18,-0.185,-0.185,-0.165,-0.16,-0.145,-0.125,-0.13,-0.125,-0.13,-0.125,-0.105,-0.07,-0.075,-0.07,-0.07,-0.05,-0.03,-0.015,-0.02,-0.02,-0.025,-0.015,0.015,0.025,0.035,0.025,0.01,0.01,0.03,0.045,0.035,0.025,0.02,0.015,0.025,0.055,0.055,0.04,0.03,0.045,0.055,0.06,0.05,0.035,0.035,0.03
0.0,217.0,-0.285,-0.28,-0.25,-0.25,-0.255,-0.28,-0.29,-0.29,-0.28,-0.265,-0.265,-0.29,-0.29,-0.275,-0.26,-0.265,-0.28,-0.295,-0.3,-0.295,-0.27,-0.275,-0.305,-0.29,-0.305,-0.305,-0.29,-0.295,-0.31,-0.335,-0.325,-0.31,-0.295,-0.295,-0.3,-0.31,-0.315,-0.3,-0.28,-0.28,-0.28,-0.31,-0.315,-0.3,-0.285,-0.285,-0.285,-0.28,-0.29,-0.265,-0.27,-0.27,-0.26,-0.275,-0.275,-0.265,-0.25,-0.25,-0.26,-0.28,-0.285,-0.275,-0.255,-0.255,-0.265,-0.275,-0.295,-0.28,-0.28,-0.28,-0.285,-0.295,-0.3,-0.305,-0.29,-0.29,-0.3,-0.3,-0.3,-0.285,-0.28,-0.285,-0.295,-0.3,-0.305,-0.295,-0.28,-0.275,-0.285,-0.295,-0.285,-0.275,-0.26,-0.25,-0.255,-0.26,-0.285,-0.265,-0.25,-0.25,-0.25,-0.24,-0.215,-0.16,-0.095,-0.03,0.02,0.105,0.245,0.44,0.63,0.805,0.905,0.94,0.925,0.845,0.71,0.53,0.29,-0.02,-0.355,-0.62,-0.715,-0.68,-0.595,-0.535,-0.475,-0.43,-0.415,-0.4,-0.415,-0.425,-0.43,-0.45,-0.435,-0.43,-0.44,-0.445,-0.47,-0.465,-0.435,-0.42,-0.425,-0.435,-0.455,-0.445,-0.445,-0.435,-0.44,-0.46,-0.47,-0.485,-0.475,-0.46,-0.475,-0.5,-0.51,-0.51,-0.485,-0.495,-0.505,-0.53,-0.555,-0.56,-0.56,-0.58,-0.595,-0.615,-0.64,-0.63,-0.605,-0.605,-0.615,-0.635,-0.65,-0.64,-0.655,-0.655,-0.675,-0.7,-0.715,-0.72,-0.73,-0.75,-0.78,-0.815,-0.835,-0.85,-0.88,-0.9,-0.93,-0.98,-1.005,-1.025,-1.035,-1.055,-1.085,-1.13,-1.165,-1.18,-1.19,-1.205,-1.22,-1.245,-1.27,-1.26,-1.25,-1.23,-1.205,-1.185,-1.18,-1.16,-1.115,-1.08,-1.03,-0.995,-0.965,-0.895,-0.84,-0.785,-0.745,-0.725,-0.705,-0.665,-0.63,-0.585,-0.57,-0.545,-0.53,-0.5,-0.465,-0.455,-0.435,-0.44,-0.425,-0.42,-0.41,-0.395,-0.405,-0.42,-0.41,-0.41,-0.395,-0.405,-0.405,-0.405,-0.405,-0.4,-0.37,-0.36,-0.365,-0.4,-0.415,-0.38,-0.37,-0.385,-0.375,-0.365,-0.36,-0.355,-0.355,-0.33,-0.34,-0.35,-0.335,-0.325,-0.295,-0.28,-0.29,-0.305,-0.31,-0.295,-0.28,-0.275,-0.285,-0.295,-0.31,-0.295,-0.285,-0.26,-0.27,-0.265,-0.28,-0.265,-0.255,-0.265,-0.27,-0.28,-0.28,-0.275,-0.265,-0.255,-0.275,-0.285,-0.29,-0.285,-0.25,-0.24,-0.245,-0.275
0.0,217.0,-0.385,-0.375,-0.365,-0.36,-0.355,-0.355,-0.33,-0.34,-0.35,-0.335,-0.325,-0.295,-0.28,-0.29,-0.305,-0.31,-0.295,-0.28,-0.275,-0.285,-0.295,-0.31,-0.295,-0.285,-0.26,-0.27,-0.265,-0.28,-0.265,-0.255,-0.265,-0.27,-0.28,-0.28,-0.275,-0.265,-0.255,-0.275,-0.285,-0.29,-0.285,-0.25,-0.24,-0.245,-0.275,-0.285,-0.285,-0.26,-0.245,-0.24,-0.26,-0.25,-0.24,-0.245,-0.23,-0.225,-0.245,-0.245,-0.235,-0.225,-0.23,-0.23,-0.25,-0.255,-0.265,-0.245,-0.245,-0.24,-0.25,-0.25,-0.24,-0.225,-0.21,-0.22,-0.245,-0.255,-0.255,-0.25,-0.24,-0.235,-0.245,-0.245,-0.235,-0.23,-0.245,-0.25,-0.27,-0.285,-0.255,-0.25,-0.23,-0.235,-0.25,-0.255,-0.25,-0.24,-0.225,-0.22,-0.225,-0.22,-0.195,-0.16,-0.13,-0.085,-0.075,-0.015,0.06,0.175,0.31,0.475,0.65,0.82,0.94,1.005,1.0,0.915,0.77,0.565,0.3,-0.03,-0.365,-0.625,-0.725,-0.695,-0.595,-0.465,-0.385,-0.35,-0.33,-0.35,-0.345,-0.325,-0.315,-0.32,-0.32,-0.325,-0.31,-0.295,-0.305,-0.305,-0.315,-0.33,-0.32,-0.305,-0.3,-0.3,-0.33,-0.325,-0.34,-0.33,-0.325,-0.335,-0.35,-0.36,-0.36,-0.345,-0.35,-0.365,-0.385,-0.395,-0.38,-0.385,-0.39,-0.4,-0.425,-0.425,-0.425,-0.415,-0.425,-0.435,-0.47,-0.47,-0.48,-0.47,-0.46,-0.49,-0.5,-0.52,-0.51,-0.495,-0.5,-0.51,-0.53,-0.555,-0.56,-0.57,-0.585,-0.59,-0.625,-0.65,-0.645,-0.655,-0.67,-0.705,-0.735,-0.775,-0.77,-0.775,-0.785,-0.825,-0.865,-0.88,-0.89,-0.905,-0.92,-0.98,-1.015,-1.065,-1.06,-1.055,-1.065,-1.065,-1.09,-1.1,-1.1,-1.075,-1.07,-1.07,-1.07,-1.05,-1.025,-0.98,-0.95,-0.925,-0.9,-0.865,-0.825,-0.785,-0.74,-0.705,-0.675,-0.645,-0.595,-0.545,-0.52,-0.505,-0.485,-0.455,-0.43,-0.405,-0.38,-0.375,-0.36,-0.37,-0.335,-0.315,-0.295,-0.295,-0.29,-0.29,-0.27,-0.24,-0.235,-0.23,-0.235,-0.235,-0.22,-0.195,-0.18,-0.19,-0.2,-0.205,-0.215,-0.19,-0.175,-0.18,-0.195,-0.205,-0.215,-0.175,-0.15,-0.125,-0.13,-0.13,-0.11,-0.05,-0.025,0.0,0.015,0.03,0.075,0.13,0.205,0.27,0.33,0.38,0.445,0.495,0.55,0.585,0.645,0.69,0.73,0.77,0.8,0.835,0.865,0.94,1.03,1.175
1.0,217.0,-0.67,-0.705,-0.735,-0.775,-0.77,-0.775,-0.785,-0.825,-0.865,-0.88,-0.89,-0.905,-0.92,-0.98,-1.015,-1.065,-1.06,-1.055,-1.065,-1.065,-1.09,-1.1,-1.1,-1.075,-1.07,-1.07,-1.07,-1.05,-1.025,-0.98,-0.95,-0.925,-0.9,-0.865,-0.825,-0.785,-0.74,-0.705,-0.675,-0.645,-0.595,-0.545,-0.52,-0.505,-0.485,-0.455,-0.43,-0.405,-0.38,-0.375,-0.36,-0.37,-0.335,-0.315,-0.295,-0.295,-0.29,-0.29,-0.27,-0.24,-0.235,-0.23,-0.235,-0.235,-0.22,-0.195,-0.18,-0.19,-0.2,-0.205,-0.215,-0.19,-0.175,-0.18,-0.195,-0.205,-0.215,-0.175,-0.15,-0.125,-0.13,-0.13,-0.11,-0.05,-0.025,0.0,0.015,0.03,0.075,0.13,0.205,0.27,0.33,0.38,0.445,0.495,0.55,0.585,0.645,0.69,0.73,0.77,0.8,0.835,0.865,0.94,1.03,1.175,1.285,1.345,1.35,1.34,1.325,1.325,1.325,1.27,1.14,0.945,0.71,0.49,0.295,0.12,-0.03,-0.15,-0.225,-0.24,-0.255,-0.275,-0.29,-0.31,-0.31,-0.31,-0.3,-0.32,-0.35,-0.36,-0.36,-0.36,-0.35,-0.38,-0.4,-0.43,-0.425,-0.395,-0.39,-0.405,-0.425,-0.445,-0.44,-0.455,-0.46,-0.49,-0.53,-0.52,-0.525,-0.52,-0.525,-0.535,-0.56,-0.585,-0.6,-0.6,-0.615,-0.625,-0.655,-0.675,-0.685,-0.68,-0.68,-0.71,-0.73,-0.775,-0.78,-0.78,-0.785,-0.805,-0.835,-0.865,-0.9,-0.91,-0.94,-0.96,-0.985,-1.02,-1.035,-1.04,-1.045,-1.09,-1.105,-1.14,-1.16,-1.16,-1.185,-1.195,-1.23,-1.25,-1.255,-1.26,-1.275,-1.29,-1.32,-1.34,-1.33,-1.325,-1.31,-1.325,-1.32,-1.325,-1.31,-1.265,-1.24,-1.215,-1.195,-1.165,-1.13,-1.085,-1.045,-1.02,-1.0,-0.955,-0.91,-0.87,-0.81,-0.785,-0.765,-0.735,-0.68,-0.62,-0.58,-0.54,-0.5,-0.47,-0.435,-0.395,-0.355,-0.34,-0.345,-0.315,-0.295,-0.265,-0.245,-0.235,-0.23,-0.22,-0.195,-0.18,-0.165,-0.175,-0.175,-0.185,-0.175,-0.155,-0.15,-0.14,-0.135,-0.14,-0.145,-0.105,-0.085,-0.08,-0.075,-0.075,-0.065,-0.045,-0.025,-0.04,-0.04,-0.03,-0.005,0.015,0.02,0.02,-0.005,0.005,0.01,0.045,0.055,0.045,0.04,0.045,0.045,0.05,0.075,0.07,0.06,0.05,0.075,0.105,0.115,0.1,0.085,0.065,0.075,0.09,0.095,0.08,0.055,0.045,0.05,0.065
0.0,217.0,-0.195,-0.225,-0.235,-0.23,-0.2,-0.205,-0.215,-0.215,-0.22,-0.2,-0.185,-0.21,-0.2,-0.225,-0.215,-0.195,-0.185,-0.19,-0.195,-0.21,-0.22,-0.21,-0.18,-0.185,-0.21,-0.22,-0.22,-0.21,-0.2,-0.2,-0.195,-0.205,-0.215,-0.195,-0.2,-0.19,-0.195,-0.215,-0.225,-0.23,-0.225,-0.23,-0.235,-0.24,-0.245,-0.24,-0.24,-0.22,-0.24,-0.255,-0.245,-0.23,-0.215,-0.23,-0.225,-0.245,-0.235,-0.23,-0.22,-0.22,-0.235,-0.245,-0.245,-0.225,-0.215,-0.21,-0.215,-0.235,-0.245,-0.235,-0.215,-0.225,-0.225,-0.23,-0.23,-0.215,-0.2,-0.18,-0.21,-0.21,-0.215,-0.2,-0.185,-0.185,-0.2,-0.205,-0.23,-0.205,-0.2,-0.195,-0.215,-0.225,-0.225,-0.235,-0.215,-0.2,-0.23,-0.21,-0.2,-0.175,-0.135,-0.1,-0.065,-0.02,0.055,0.12,0.245,0.405,0.555,0.705,0.85,0.945,1.015,1.02,0.96,0.85,0.725,0.57,0.355,0.105,-0.185,-0.41,-0.505,-0.505,-0.455,-0.415,-0.395,-0.38,-0.375,-0.355,-0.34,-0.335,-0.345,-0.375,-0.365,-0.36,-0.34,-0.36,-0.36,-0.37,-0.375,-0.39,-0.38,-0.39,-0.395,-0.41,-0.405,-0.385,-0.375,-0.385,-0.385,-0.41,-0.415,-0.4,-0.375,-0.38,-0.395,-0.415,-0.41,-0.405,-0.39,-0.395,-0.4,-0.42,-0.425,-0.425,-0.4,-0.4,-0.425,-0.445,-0.46,-0.45,-0.44,-0.455,-0.475,-0.505,-0.505,-0.505,-0.49,-0.49,-0.51,-0.525,-0.535,-0.54,-0.54,-0.56,-0.575,-0.585,-0.6,-0.605,-0.615,-0.625,-0.66,-0.675,-0.695,-0.69,-0.69,-0.715,-0.75,-0.79,-0.82,-0.83,-0.84,-0.865,-0.885,-0.92,-0.94,-0.95,-0.965,-0.98,-1.02,-1.06,-1.07,-1.065,-1.06,-1.085,-1.105,-1.125,-1.115,-1.11,-1.095,-1.075,-1.095,-1.09,-1.075,-1.05,-1.01,-0.985,-0.97,-0.955,-0.93,-0.89,-0.84,-0.82,-0.805,-0.765,-0.74,-0.705,-0.66,-0.64,-0.63,-0.61,-0.575,-0.55,-0.51,-0.485,-0.465,-0.46,-0.44,-0.41,-0.39,-0.385,-0.405,-0.41,-0.375,-0.36,-0.345,-0.31,-0.31,-0.32,-0.305,-0.285,-0.265,-0.255,-0.27,-0.265,-0.275,-0.26,-0.24,-0.235,-0.24,-0.245,-0.25,-0.23,-0.23,-0.215,-0.23,-0.22,-0.23,-0.21,-0.2,-0.195,-0.195,-0.215,-0.2,-0.18,-0.155,-0.15,-0.155,-0.155,-0.155,-0.14,-0.115,-0.11,-0.1,-0.09,-0.075,-0.04,0.01,0.035
1.0,217.0,-1.115,-1.11,-1.095,-1.075,-1.095,-1.09,-1.075,-1.05,-1.01,-0.985,-0.97,-0.955,-0.93,-0.89,-0.84,-0.82,-0.805,-0.765,-0.74,-0.705,-0.66,-0.64,-0.63,-0.61,-0.575,-0.55,-0.51,-0.485,-0.465,-0.46,-0.44,-0.41,-0.39,-0.385,-0.405,-0.41,-0.375,-0.36,-0.345,-0.31,-0.31,-0.32,-0.305,-0.285,-0.265,-0.255,-0.27,-0.265,-0.275,-0.26,-0.24,-0.235,-0.24,-0.245,-0.25,-0.23,-0.23,-0.215,-0.23,-0.22,-0.23,-0.21,-0.2,-0.195,-0.195,-0.215,-0.2,-0.18,-0.155,-0.15,-0.155,-0.155,-0.155,-0.14,-0.115,-0.11,-0.1,-0.09,-0.075,-0.04,0.01,0.035,0.06,0.115,0.15,0.215,0.305,0.37,0.415,0.455,0.52,0.585,0.655,0.695,0.745,0.81,0.865,0.935,0.995,1.03,1.08,1.12,1.185,1.28,1.38,1.435,1.465,1.495,1.545,1.61,1.665,1.705,1.715,1.695,1.675,1.63,1.525,1.35,1.065,0.775,0.495,0.285,0.115,0.025,-0.03,-0.115,-0.175,-0.23,-0.26,-0.315,-0.39,-0.42,-0.47,-0.475,-0.48,-0.505,-0.54,-0.55,-0.57,-0.575,-0.56,-0.58,-0.62,-0.65,-0.67,-0.68,-0.695,-0.695,-0.715,-0.735,-0.75,-0.735,-0.73,-0.73,-0.765,-0.775,-0.78,-0.785,-0.785,-0.8,-0.83,-0.86,-0.875,-0.895,-0.9,-0.91,-0.935,-0.97,-1.0,-1.01,-1.015,-1.05,-1.08,-1.11,-1.135,-1.155,-1.18,-1.195,-1.245,-1.28,-1.305,-1.34,-1.36,-1.38,-1.425,-1.46,-1.49,-1.5,-1.525,-1.555,-1.575,-1.625,-1.65,-1.675,-1.655,-1.67,-1.72,-1.735,-1.745,-1.745,-1.745,-1.765,-1.785,-1.785,-1.79,-1.79,-1.78,-1.755,-1.76,-1.75,-1.74,-1.725,-1.7,-1.69,-1.685,-1.67,-1.63,-1.595,-1.55,-1.52,-1.495,-1.47,-1.44,-1.395,-1.35,-1.3,-1.275,-1.255,-1.21,-1.17,-1.13,-1.09,-1.08,-1.06,-1.015,-0.96,-0.895,-0.86,-0.835,-0.82,-0.78,-0.745,-0.7,-0.665,-0.645,-0.6,-0.58,-0.53,-0.5,-0.48,-0.46,-0.465,-0.465,-0.44,-0.385,-0.365,-0.355,-0.34,-0.315,-0.295,-0.255,-0.235,-0.225,-0.23,-0.215,-0.185,-0.165,-0.145,-0.155,-0.15,-0.145,-0.12,-0.09,-0.09,-0.09,-0.09,-0.1,-0.075,-0.055,-0.055,-0.065,-0.06,-0.055,-0.03,-0.015,-0.01,-0.015,-0.03,-0.005,0.01,0.02,0.015,0.025,0.005,0.005,0.02,0.025,0.04,0.03,0.01
1.0,217.0,-0.73,-0.745,-0.75,-0.765,-0.785,-0.82,-0.87,-0.895,-0.895,-0.895,-0.925,-0.98,-1.0,-1.02,-1.035,-1.045,-1.065,-1.085,-1.11,-1.11,-1.125,-1.11,-1.11,-1.11,-1.125,-1.11,-1.09,-1.065,-1.045,-1.02,-1.01,-0.97,-0.935,-0.895,-0.875,-0.85,-0.84,-0.81,-0.785,-0.74,-0.705,-0.69,-0.68,-0.65,-0.61,-0.57,-0.545,-0.545,-0.535,-0.52,-0.5,-0.475,-0.455,-0.445,-0.445,-0.44,-0.4,-0.37,-0.375,-0.375,-0.375,-0.36,-0.34,-0.32,-0.31,-0.315,-0.315,-0.305,-0.28,-0.28,-0.255,-0.28,-0.28,-0.27,-0.25,-0.215,-0.22,-0.215,-0.22,-0.205,-0.185,-0.165,-0.15,-0.125,-0.12,-0.095,-0.03,0.035,0.08,0.155,0.22,0.29,0.355,0.45,0.505,0.565,0.62,0.675,0.745,0.825,0.89,0.94,0.985,1.055,1.135,1.235,1.31,1.36,1.38,1.425,1.485,1.535,1.555,1.555,1.53,1.49,1.43,1.285,1.045,0.73,0.41,0.2,0.05,-0.01,-0.105,-0.175,-0.255,-0.325,-0.35,-0.38,-0.43,-0.475,-0.52,-0.545,-0.565,-0.56,-0.58,-0.6,-0.63,-0.65,-0.64,-0.65,-0.655,-0.68,-0.705,-0.725,-0.725,-0.735,-0.76,-0.78,-0.8,-0.81,-0.805,-0.815,-0.825,-0.86,-0.885,-0.905,-0.925,-0.92,-0.94,-0.975,-1.005,-1.035,-1.045,-1.05,-1.09,-1.125,-1.17,-1.2,-1.205,-1.22,-1.26,-1.29,-1.33,-1.36,-1.375,-1.38,-1.43,-1.465,-1.51,-1.535,-1.545,-1.555,-1.58,-1.62,-1.655,-1.665,-1.675,-1.675,-1.7,-1.725,-1.735,-1.76,-1.73,-1.725,-1.73,-1.745,-1.755,-1.755,-1.705,-1.685,-1.67,-1.655,-1.65,-1.63,-1.575,-1.535,-1.495,-1.475,-1.45,-1.435,-1.355,-1.305,-1.27,-1.23,-1.195,-1.155,-1.09,-1.035,-0.99,-0.96,-0.93,-0.885,-0.84,-0.79,-0.74,-0.72,-0.7,-0.665,-0.615,-0.565,-0.55,-0.54,-0.51,-0.5,-0.445,-0.415,-0.41,-0.415,-0.39,-0.375,-0.345,-0.335,-0.305,-0.32,-0.295,-0.29,-0.26,-0.225,-0.225,-0.235,-0.235,-0.23,-0.2,-0.185,-0.175,-0.18,-0.19,-0.19,-0.17,-0.135,-0.14,-0.135,-0.145,-0.135,-0.135,-0.1,-0.095,-0.11,-0.115,-0.11,-0.105,-0.09,-0.095,-0.085,-0.105,-0.095,-0.07,-0.05,-0.055,-0.075,-0.09,-0.085,-0.08,-0.05,-0.045,-0.055,-0.055,-0.06,-0.045,-0.035,-0.03,-0.045,-0.04,-0.05,-0.035,-0.025,-0.015,-0.025
1.0,217.0,-1.07,-1.095,-1.13,-1.175,-1.21,-1.23,-1.245,-1.255,-1.295,-1.32,-1.36,-1.36,-1.345,-1.365,-1.375,-1.39,-1.4,-1.395,-1.385,-1.365,-1.375,-1.37,-1.37,-1.33,-1.305,-1.285,-1.275,-1.265,-1.245,-1.2,-1.16,-1.145,-1.115,-1.085,-1.05,-1.0,-0.97,-0.94,-0.92,-0.91,-0.89,-0.855,-0.8,-0.795,-0.795,-0.79,-0.755,-0.735,-0.695,-0.685,-0.665,-0.675,-0.655,-0.61,-0.59,-0.575,-0.575,-0.59,-0.58,-0.555,-0.515,-0.505,-0.525,-0.515,-0.52,-0.485,-0.475,-0.48,-0.485,-0.485,-0.49,-0.46,-0.455,-0.435,-0.435,-0.435,-0.44,-0.405,-0.385,-0.375,-0.375,-0.37,-0.35,-0.31,-0.26,-0.22,-0.195,-0.115,-0.02,0.085,0.18,0.28,0.34,0.425,0.49,0.565,0.63,0.71,0.77,0.84,0.92,1.01,1.085,1.185,1.275,1.37,1.465,1.53,1.575,1.605,1.645,1.695,1.75,1.795,1.815,1.765,1.655,1.46,1.16,0.775,0.405,0.05,-0.18,-0.31,-0.37,-0.405,-0.45,-0.505,-0.575,-0.64,-0.705,-0.735,-0.75,-0.77,-0.805,-0.82,-0.835,-0.835,-0.845,-0.875,-0.895,-0.925,-0.94,-0.945,-0.935,-0.945,-0.965,-0.965,-0.97,-0.96,-0.965,-0.965,-0.98,-1.005,-1.01,-1.025,-1.025,-1.035,-1.07,-1.1,-1.105,-1.11,-1.11,-1.135,-1.18,-1.205,-1.23,-1.25,-1.25,-1.275,-1.315,-1.34,-1.385,-1.41,-1.415,-1.45,-1.505,-1.535,-1.57,-1.59,-1.585,-1.605,-1.65,-1.675,-1.705,-1.715,-1.725,-1.76,-1.8,-1.825,-1.84,-1.84,-1.845,-1.865,-1.885,-1.92,-1.93,-1.925,-1.9,-1.895,-1.91,-1.925,-1.91,-1.895,-1.875,-1.87,-1.855,-1.865,-1.835,-1.805,-1.765,-1.75,-1.74,-1.725,-1.7,-1.66,-1.62,-1.58,-1.55,-1.53,-1.49,-1.44,-1.395,-1.355,-1.33,-1.305,-1.265,-1.225,-1.15,-1.13,-1.105,-1.09,-1.05,-0.995,-0.955,-0.915,-0.885,-0.865,-0.835,-0.8,-0.765,-0.75,-0.74,-0.73,-0.685,-0.65,-0.605,-0.58,-0.565,-0.56,-0.565,-0.52,-0.49,-0.485,-0.5,-0.49,-0.48,-0.445,-0.43,-0.415,-0.41,-0.415,-0.41,-0.38,-0.365,-0.355,-0.35,-0.36,-0.345,-0.355,-0.335,-0.32,-0.325,-0.33,-0.335,-0.31,-0.29,-0.285,-0.295,-0.295,-0.31,-0.295,-0.275,-0.295,-0.3,-0.3,-0.305,-0.265,-0.255,-0.255,-0.26,-0.265,-0.27,-0.255,-0.235,-0.24,-0.25,-0.255,-0.26,-0.235
1.0,217.0,-0.285,-0.295,-0.29,-0.27,-0.26,-0.245,-0.26,-0.27,-0.25,-0.25,-0.24,-0.235,-0.26,-0.25,-0.25,-0.235,-0.22,-0.23,-0.23,-0.24,-0.235,-0.21,-0.21,-0.2,-0.21,-0.22,-0.24,-0.225,-0.185,-0.205,-0.205,-0.22,-0.225,-0.21,-0.2,-0.22,-0.23,-0.24,-0.245,-0.24,-0.235,-0.23,-0.25,-0.275,-0.265,-0.255,-0.25,-0.225,-0.225,-0.23,-0.215,-0.205,-0.18,-0.185,-0.21,-0.21,-0.22,-0.22,-0.215,-0.22,-0.23,-0.23,-0.245,-0.22,-0.21,-0.205,-0.205,-0.22,-0.24,-0.215,-0.195,-0.21,-0.22,-0.22,-0.235,-0.21,-0.19,-0.19,-0.175,-0.18,-0.17,-0.125,-0.09,-0.04,0.005,0.07,0.13,0.23,0.325,0.4,0.45,0.485,0.53,0.6,0.675,0.715,0.785,0.85,0.93,1.02,1.11,1.195,1.29,1.395,1.5,1.595,1.665,1.72,1.785,1.85,1.935,1.955,2.01,1.99,1.945,1.86,1.72,1.48,1.115,0.65,0.23,-0.05,-0.175,-0.225,-0.28,-0.35,-0.445,-0.515,-0.57,-0.615,-0.635,-0.665,-0.705,-0.74,-0.75,-0.77,-0.77,-0.785,-0.81,-0.835,-0.84,-0.84,-0.82,-0.82,-0.845,-0.865,-0.89,-0.885,-0.895,-0.9,-0.94,-0.955,-0.97,-0.96,-0.97,-0.985,-1.015,-1.035,-1.045,-1.065,-1.055,-1.075,-1.115,-1.145,-1.155,-1.17,-1.18,-1.205,-1.235,-1.27,-1.3,-1.32,-1.34,-1.36,-1.4,-1.44,-1.495,-1.495,-1.505,-1.535,-1.575,-1.615,-1.645,-1.655,-1.675,-1.715,-1.745,-1.805,-1.81,-1.835,-1.84,-1.86,-1.9,-1.93,-1.935,-1.965,-1.95,-1.95,-1.96,-1.965,-1.975,-1.955,-1.95,-1.955,-1.97,-1.975,-1.955,-1.935,-1.915,-1.91,-1.89,-1.89,-1.865,-1.835,-1.795,-1.78,-1.75,-1.735,-1.72,-1.68,-1.625,-1.605,-1.57,-1.545,-1.5,-1.46,-1.415,-1.385,-1.37,-1.335,-1.305,-1.26,-1.21,-1.18,-1.165,-1.16,-1.125,-1.075,-1.02,-0.985,-0.965,-0.955,-0.935,-0.88,-0.835,-0.805,-0.795,-0.765,-0.73,-0.68,-0.64,-0.62,-0.605,-0.57,-0.55,-0.515,-0.485,-0.47,-0.475,-0.48,-0.465,-0.44,-0.395,-0.395,-0.39,-0.38,-0.385,-0.36,-0.32,-0.315,-0.315,-0.31,-0.3,-0.285,-0.255,-0.26,-0.265,-0.285,-0.27,-0.245,-0.25,-0.235,-0.24,-0.27,-0.24,-0.235,-0.225,-0.225,-0.235,-0.23,-0.225,-0.205,-0.19,-0.175,-0.215,-0.215,-0.19,-0.17,-0.14,-0.145
1.0,217.0,-0.65,-0.655,-0.68,-0.72,-0.74,-0.74,-0.76,-0.785,-0.81,-0.86,-0.865,-0.88,-0.89,-0.905,-0.945,-0.97,-0.98,-0.985,-0.98,-1.005,-1.02,-1.035,-1.03,-1.02,-1.0,-1.01,-1.015,-1.015,-1.01,-0.985,-0.96,-0.96,-0.94,-0.925,-0.88,-0.84,-0.81,-0.8,-0.775,-0.77,-0.725,-0.68,-0.655,-0.635,-0.62,-0.61,-0.57,-0.54,-0.515,-0.495,-0.505,-0.485,-0.465,-0.445,-0.43,-0.41,-0.41,-0.4,-0.39,-0.355,-0.345,-0.345,-0.345,-0.345,-0.34,-0.315,-0.305,-0.31,-0.31,-0.315,-0.3,-0.28,-0.275,-0.265,-0.26,-0.28,-0.245,-0.225,-0.21,-0.2,-0.19,-0.19,-0.17,-0.115,-0.07,-0.025,0.03,0.085,0.185,0.285,0.395,0.47,0.515,0.58,0.665,0.73,0.805,0.875,0.95,1.02,1.135,1.23,1.32,1.405,1.495,1.6,1.74,1.875,1.975,1.995,2.05,2.145,2.235,2.315,2.345,2.285,2.145,1.885,1.49,1.0,0.545,0.205,0.015,-0.085,-0.125,-0.17,-0.225,-0.295,-0.355,-0.405,-0.44,-0.465,-0.485,-0.5,-0.525,-0.555,-0.545,-0.555,-0.565,-0.575,-0.605,-0.625,-0.635,-0.62,-0.62,-0.64,-0.66,-0.685,-0.69,-0.695,-0.705,-0.725,-0.75,-0.78,-0.775,-0.765,-0.78,-0.81,-0.835,-0.855,-0.86,-0.865,-0.88,-0.9,-0.945,-0.995,-0.99,-0.985,-1.005,-1.03,-1.065,-1.095,-1.1,-1.13,-1.135,-1.16,-1.2,-1.225,-1.235,-1.235,-1.25,-1.29,-1.31,-1.32,-1.34,-1.335,-1.35,-1.355,-1.395,-1.41,-1.415,-1.42,-1.41,-1.425,-1.45,-1.45,-1.445,-1.435,-1.42,-1.425,-1.425,-1.43,-1.42,-1.395,-1.355,-1.345,-1.34,-1.325,-1.3,-1.255,-1.235,-1.225,-1.205,-1.175,-1.135,-1.085,-1.045,-1.02,-0.99,-0.965,-0.93,-0.875,-0.845,-0.81,-0.8,-0.78,-0.74,-0.7,-0.655,-0.635,-0.625,-0.605,-0.565,-0.515,-0.495,-0.475,-0.465,-0.445,-0.425,-0.39,-0.38,-0.36,-0.37,-0.355,-0.34,-0.32,-0.31,-0.31,-0.295,-0.29,-0.27,-0.245,-0.23,-0.23,-0.235,-0.24,-0.22,-0.2,-0.205,-0.205,-0.21,-0.205,-0.185,-0.16,-0.15,-0.16,-0.17,-0.155,-0.175,-0.145,-0.135,-0.145,-0.145,-0.15,-0.155,-0.13,-0.11,-0.135,-0.135,-0.15,-0.145,-0.12,-0.09,-0.105,-0.11,-0.13,-0.105,-0.095,-0.09,-0.105,-0.115,-0.115,-0.1,-0.09,-0.08,-0.08,-0.095,-0.105,-0.085,-0.07
1.0,217.0,1.01,0.985,0.955,0.92,0.895,0.885,0.865,0.82,0.78,0.745,0.73,0.71,0.69,0.66,0.615,0.565,0.54,0.525,0.485,0.45,0.41,0.395,0.37,0.35,0.325,0.3,0.26,0.24,0.21,0.205,0.195,0.165,0.145,0.115,0.115,0.105,0.1,0.105,0.08,0.055,0.06,0.06,0.055,0.05,0.03,0.02,0.025,0.035,0.03,0.035,0.015,0.0,0.0,0.005,0.01,-0.005,-0.025,-0.035,-0.02,-0.03,-0.02,0.01,-0.02,-0.035,-0.02,-0.01,0.005,-0.005,-0.015,-0.03,-0.03,-0.015,-0.015,-0.025,-0.04,-0.04,-0.03,-0.015,0.0,0.005,-0.025,-0.015,-0.005,0.035,0.115,0.165,0.215,0.29,0.375,0.48,0.595,0.665,0.725,0.775,0.855,0.92,1.01,1.08,1.135,1.21,1.28,1.37,1.47,1.58,1.675,1.715,1.775,1.845,1.935,2.04,2.125,2.205,2.27,2.29,2.245,2.145,1.935,1.625,1.21,0.78,0.435,0.17,0.015,-0.07,-0.13,-0.16,-0.2,-0.265,-0.335,-0.38,-0.43,-0.445,-0.47,-0.495,-0.535,-0.57,-0.565,-0.56,-0.57,-0.58,-0.605,-0.62,-0.615,-0.63,-0.61,-0.635,-0.655,-0.685,-0.675,-0.67,-0.67,-0.68,-0.71,-0.735,-0.73,-0.73,-0.73,-0.765,-0.775,-0.805,-0.805,-0.8,-0.795,-0.825,-0.86,-0.895,-0.905,-0.91,-0.915,-0.95,-0.99,-1.025,-1.04,-1.035,-1.045,-1.095,-1.125,-1.16,-1.175,-1.195,-1.205,-1.225,-1.255,-1.29,-1.315,-1.325,-1.34,-1.345,-1.375,-1.405,-1.415,-1.405,-1.43,-1.44,-1.455,-1.485,-1.485,-1.475,-1.485,-1.5,-1.52,-1.54,-1.54,-1.505,-1.515,-1.51,-1.51,-1.525,-1.51,-1.49,-1.495,-1.485,-1.51,-1.485,-1.465,-1.435,-1.415,-1.4,-1.385,-1.385,-1.35,-1.32,-1.295,-1.285,-1.28,-1.25,-1.215,-1.18,-1.135,-1.13,-1.11,-1.085,-1.055,-1.01,-0.975,-0.95,-0.945,-0.915,-0.875,-0.83,-0.795,-0.76,-0.74,-0.73,-0.69,-0.65,-0.615,-0.61,-0.595,-0.585,-0.555,-0.525,-0.505,-0.485,-0.475,-0.455,-0.43,-0.4,-0.37,-0.36,-0.355,-0.345,-0.32,-0.3,-0.285,-0.285,-0.285,-0.28,-0.26,-0.235,-0.215,-0.205,-0.21,-0.19,-0.175,-0.16,-0.15,-0.14,-0.14,-0.145,-0.13,-0.115,-0.1,-0.11,-0.11,-0.125,-0.125,-0.1,-0.08,-0.095,-0.095,-0.1,-0.09,-0.08,-0.08,-0.07,-0.09,-0.09,-0.075,-0.06
0.0,217.0,-0.025,-0.015,-0.035,-0.04,-0.05,-0.035,-0.02,-0.005,-0.005,-0.01,-0.015,-0.035,-0.015,0.0,-0.01,-0.03,-0.045,-0.045,-0.03,-0.03,-0.045,-0.065,-0.06,-0.05,-0.04,-0.03,-0.025,-0.05,-0.08,-0.065,-0.055,-0.055,-0.055,-0.09,-0.085,-0.09,-0.075,-0.075,-0.09,-0.11,-0.11,-0.1,-0.1,-0.095,-0.1,-0.105,-0.115,-0.11,-0.09,-0.085,-0.1,-0.105,-0.115,-0.11,-0.11,-0.09,-0.12,-0.105,-0.13,-0.09,-0.09,-0.07,-0.095,-0.115,-0.13,-0.12,-0.12,-0.1,-0.115,-0.12,-0.13,-0.125,-0.115,-0.11,-0.11,-0.125,-0.13,-0.11,-0.115,-0.1,-0.1,-0.11,-0.125,-0.11,-0.105,-0.095,-0.095,-0.135,-0.145,-0.13,-0.105,-0.095,-0.105,-0.115,-0.125,-0.12,-0.09,-0.07,-0.08,-0.08,-0.065,-0.035,0.02,0.06,0.105,0.135,0.235,0.4,0.6,0.83,1.03,1.155,1.245,1.27,1.205,1.085,0.88,0.63,0.325,-0.005,-0.265,-0.395,-0.42,-0.39,-0.36,-0.31,-0.265,-0.235,-0.25,-0.255,-0.255,-0.26,-0.245,-0.24,-0.245,-0.265,-0.29,-0.275,-0.255,-0.245,-0.265,-0.27,-0.285,-0.285,-0.28,-0.3,-0.285,-0.325,-0.31,-0.325,-0.315,-0.29,-0.315,-0.33,-0.34,-0.34,-0.325,-0.32,-0.33,-0.34,-0.35,-0.35,-0.335,-0.345,-0.365,-0.385,-0.39,-0.39,-0.385,-0.375,-0.375,-0.39,-0.395,-0.375,-0.385,-0.365,-0.38,-0.395,-0.425,-0.42,-0.405,-0.41,-0.42,-0.445,-0.46,-0.45,-0.46,-0.465,-0.475,-0.515,-0.55,-0.56,-0.57,-0.58,-0.6,-0.63,-0.66,-0.67,-0.675,-0.695,-0.725,-0.765,-0.8,-0.79,-0.805,-0.81,-0.845,-0.865,-0.875,-0.89,-0.885,-0.9,-0.9,-0.905,-0.925,-0.89,-0.875,-0.845,-0.85,-0.83,-0.815,-0.795,-0.73,-0.69,-0.68,-0.68,-0.66,-0.63,-0.59,-0.56,-0.545,-0.515,-0.515,-0.48,-0.455,-0.42,-0.41,-0.405,-0.385,-0.375,-0.355,-0.34,-0.345,-0.355,-0.345,-0.335,-0.305,-0.295,-0.28,-0.285,-0.295,-0.27,-0.255,-0.225,-0.235,-0.255,-0.255,-0.23,-0.215,-0.23,-0.215,-0.225,-0.23,-0.225,-0.22,-0.215,-0.215,-0.22,-0.23,-0.215,-0.2,-0.185,-0.185,-0.19,-0.19,-0.19,-0.17,-0.165,-0.175,-0.18,-0.19,-0.18,-0.165,-0.145,-0.165,-0.165,-0.175,-0.17,-0.155,-0.14,-0.145,-0.15,-0.16,-0.15,-0.135,-0.13,-0.145,-0.16,-0.16,-0.16
0.0,217.0,-0.165,-0.175,-0.17,-0.155,-0.14,-0.145,-0.15,-0.16,-0.15,-0.135,-0.13,-0.145,-0.16,-0.16,-0.16,-0.15,-0.135,-0.145,-0.16,-0.16,-0.17,-0.165,-0.15,-0.17,-0.18,-0.17,-0.165,-0.15,-0.16,-0.175,-0.165,-0.16,-0.16,-0.135,-0.135,-0.135,-0.15,-0.16,-0.15,-0.145,-0.135,-0.155,-0.165,-0.165,-0.16,-0.15,-0.14,-0.16,-0.175,-0.19,-0.185,-0.185,-0.17,-0.19,-0.185,-0.185,-0.175,-0.16,-0.15,-0.165,-0.16,-0.185,-0.175,-0.165,-0.165,-0.185,-0.185,-0.195,-0.185,-0.165,-0.145,-0.15,-0.155,-0.17,-0.155,-0.145,-0.135,-0.13,-0.15,-0.15,-0.15,-0.13,-0.115,-0.14,-0.145,-0.15,-0.15,-0.13,-0.12,-0.125,-0.135,-0.145,-0.135,-0.14,-0.135,-0.13,-0.135,-0.15,-0.125,-0.105,-0.075,-0.07,-0.06,-0.02,0.025,0.105,0.185,0.285,0.425,0.625,0.84,1.03,1.145,1.195,1.14,1.035,0.86,0.675,0.42,0.13,-0.165,-0.405,-0.485,-0.465,-0.39,-0.345,-0.315,-0.285,-0.265,-0.24,-0.235,-0.24,-0.24,-0.245,-0.24,-0.24,-0.23,-0.23,-0.25,-0.245,-0.255,-0.245,-0.24,-0.25,-0.275,-0.28,-0.285,-0.28,-0.275,-0.29,-0.3,-0.33,-0.315,-0.305,-0.31,-0.325,-0.345,-0.35,-0.34,-0.33,-0.315,-0.325,-0.35,-0.375,-0.35,-0.345,-0.34,-0.335,-0.35,-0.36,-0.355,-0.35,-0.355,-0.375,-0.41,-0.43,-0.42,-0.4,-0.39,-0.415,-0.425,-0.435,-0.43,-0.425,-0.425,-0.42,-0.445,-0.46,-0.485,-0.48,-0.49,-0.53,-0.545,-0.575,-0.59,-0.585,-0.615,-0.645,-0.665,-0.69,-0.71,-0.73,-0.74,-0.765,-0.775,-0.795,-0.805,-0.8,-0.795,-0.825,-0.835,-0.86,-0.85,-0.835,-0.835,-0.835,-0.84,-0.81,-0.805,-0.775,-0.74,-0.725,-0.715,-0.705,-0.67,-0.63,-0.605,-0.56,-0.555,-0.545,-0.5,-0.465,-0.44,-0.425,-0.43,-0.4,-0.37,-0.345,-0.31,-0.31,-0.305,-0.29,-0.275,-0.245,-0.24,-0.235,-0.245,-0.245,-0.22,-0.21,-0.2,-0.2,-0.21,-0.21,-0.19,-0.18,-0.18,-0.18,-0.205,-0.21,-0.175,-0.17,-0.145,-0.135,-0.15,-0.165,-0.15,-0.15,-0.145,-0.125,-0.13,-0.145,-0.135,-0.115,-0.13,-0.12,-0.14,-0.13,-0.12,-0.115,-0.095,-0.105,-0.115,-0.13,-0.13,-0.1,-0.09,-0.105,-0.11,-0.12,-0.11,-0.09,-0.085,-0.085,-0.105,-0.1,-0.09,-0.09,-0.075,-0.09
0.0,217.0,-0.13,-0.13,-0.1,-0.09,-0.105,-0.11,-0.12,-0.11,-0.09,-0.085,-0.085,-0.105,-0.1,-0.09,-0.09,-0.075,-0.09,-0.11,-0.13,-0.115,-0.115,-0.1,-0.1,-0.12,-0.125,-0.115,-0.105,-0.095,-0.12,-0.145,-0.135,-0.12,-0.11,-0.095,-0.105,-0.12,-0.125,-0.125,-0.11,-0.11,-0.095,-0.12,-0.12,-0.12,-0.085,-0.085,-0.09,-0.095,-0.11,-0.1,-0.09,-0.09,-0.075,-0.09,-0.115,-0.09,-0.075,-0.07,-0.095,-0.095,-0.105,-0.115,-0.09,-0.1,-0.095,-0.11,-0.15,-0.115,-0.115,-0.12,-0.12,-0.14,-0.15,-0.145,-0.115,-0.115,-0.13,-0.14,-0.155,-0.13,-0.125,-0.13,-0.12,-0.13,-0.15,-0.155,-0.145,-0.14,-0.13,-0.125,-0.145,-0.125,-0.1,-0.075,-0.07,-0.075,-0.09,-0.095,-0.07,-0.045,-0.04,-0.035,0.0,0.035,0.09,0.155,0.23,0.335,0.495,0.72,0.94,1.13,1.245,1.285,1.275,1.185,1.045,0.855,0.595,0.285,-0.05,-0.3,-0.42,-0.41,-0.36,-0.305,-0.27,-0.235,-0.2,-0.195,-0.205,-0.22,-0.23,-0.235,-0.2,-0.205,-0.2,-0.21,-0.22,-0.21,-0.21,-0.21,-0.23,-0.24,-0.24,-0.24,-0.22,-0.225,-0.21,-0.22,-0.235,-0.215,-0.215,-0.22,-0.22,-0.245,-0.26,-0.245,-0.24,-0.23,-0.245,-0.255,-0.255,-0.26,-0.26,-0.255,-0.275,-0.295,-0.285,-0.295,-0.295,-0.3,-0.315,-0.32,-0.33,-0.335,-0.33,-0.32,-0.335,-0.345,-0.355,-0.35,-0.35,-0.36,-0.37,-0.38,-0.4,-0.415,-0.42,-0.42,-0.435,-0.48,-0.495,-0.515,-0.51,-0.52,-0.54,-0.575,-0.6,-0.61,-0.635,-0.635,-0.66,-0.705,-0.72,-0.75,-0.74,-0.755,-0.765,-0.765,-0.79,-0.785,-0.775,-0.775,-0.77,-0.795,-0.775,-0.745,-0.725,-0.68,-0.665,-0.66,-0.64,-0.61,-0.56,-0.525,-0.505,-0.495,-0.47,-0.44,-0.395,-0.36,-0.36,-0.335,-0.315,-0.29,-0.265,-0.23,-0.23,-0.235,-0.23,-0.215,-0.18,-0.17,-0.16,-0.185,-0.18,-0.16,-0.145,-0.12,-0.125,-0.135,-0.15,-0.14,-0.1,-0.105,-0.095,-0.11,-0.11,-0.095,-0.07,-0.065,-0.075,-0.1,-0.09,-0.08,-0.06,-0.055,-0.05,-0.06,-0.06,-0.05,-0.045,-0.03,-0.035,-0.045,-0.05,-0.035,-0.05,-0.025,-0.02,-0.04,-0.04,-0.015,-0.005,0.0,0.005,-0.01,-0.015,0.015,0.01,0.03,0.01,-0.01,-0.03,-0.03,-0.025,-0.025,-0.03,-0.05
0.0,217.0,-0.04,-0.015,-0.02,-0.01,-0.01,-0.02,-0.035,-0.03,-0.01,-0.005,-0.005,-0.03,-0.035,-0.03,-0.025,-0.01,-0.025,-0.025,-0.02,-0.005,0.0,0.005,0.005,0.0,0.005,0.01,0.005,0.015,0.02,0.01,-0.005,-0.005,0.03,0.04,0.015,0.01,-0.005,0.02,0.01,0.025,0.03,0.015,0.01,0.01,0.03,0.035,0.035,0.02,0.005,0.02,0.035,0.04,0.02,0.005,-0.005,-0.015,0.01,0.03,0.025,0.005,0.01,0.015,0.025,0.015,0.025,0.015,0.01,0.005,0.025,0.035,0.02,0.035,0.025,0.025,0.055,0.055,0.05,0.03,0.015,0.025,0.04,0.035,0.03,0.03,0.005,0.01,0.015,0.03,0.015,0.01,0.02,0.025,0.04,0.035,0.035,0.025,0.015,0.02,0.025,0.035,0.05,0.035,0.06,0.105,0.14,0.225,0.285,0.37,0.52,0.755,1.025,1.245,1.39,1.445,1.41,1.28,1.11,0.87,0.59,0.255,-0.04,-0.23,-0.265,-0.22,-0.165,-0.135,-0.1,-0.085,-0.06,-0.045,-0.06,-0.08,-0.095,-0.09,-0.08,-0.075,-0.1,-0.115,-0.125,-0.13,-0.125,-0.11,-0.12,-0.135,-0.125,-0.11,-0.095,-0.105,-0.095,-0.11,-0.12,-0.12,-0.095,-0.09,-0.11,-0.13,-0.13,-0.13,-0.13,-0.12,-0.13,-0.135,-0.145,-0.135,-0.13,-0.135,-0.145,-0.16,-0.16,-0.16,-0.155,-0.16,-0.17,-0.19,-0.195,-0.195,-0.19,-0.175,-0.2,-0.2,-0.21,-0.215,-0.215,-0.23,-0.24,-0.28,-0.3,-0.305,-0.295,-0.295,-0.32,-0.345,-0.375,-0.395,-0.385,-0.395,-0.42,-0.45,-0.5,-0.49,-0.505,-0.53,-0.545,-0.575,-0.6,-0.61,-0.615,-0.62,-0.64,-0.665,-0.68,-0.68,-0.675,-0.675,-0.68,-0.685,-0.67,-0.655,-0.63,-0.61,-0.595,-0.59,-0.555,-0.525,-0.47,-0.435,-0.415,-0.405,-0.365,-0.33,-0.29,-0.26,-0.25,-0.24,-0.215,-0.19,-0.16,-0.13,-0.115,-0.105,-0.11,-0.095,-0.07,-0.055,-0.055,-0.06,-0.06,-0.055,-0.03,-0.03,-0.03,-0.055,-0.045,-0.035,-0.015,-0.005,-0.015,-0.03,-0.03,-0.02,0.01,0.01,-0.005,-0.015,-0.04,-0.045,-0.045,-0.055,-0.07,-0.09,-0.1,-0.1,-0.09,-0.1,-0.09,-0.095,-0.08,-0.045,-0.015,0.035,0.09,0.135,0.185,0.265,0.345,0.425,0.5,0.585,0.665,0.75,0.84,0.93,0.99,1.055,1.1,1.12,1.11,1.09,1.02,0.88
1.0,217.0,-0.215,-0.23,-0.24,-0.28,-0.3,-0.305,-0.295,-0.295,-0.32,-0.345,-0.375,-0.395,-0.385,-0.395,-0.42,-0.45,-0.5,-0.49,-0.505,-0.53,-0.545,-0.575,-0.6,-0.61,-0.615,-0.62,-0.64,-0.665,-0.68,-0.68,-0.675,-0.675,-0.68,-0.685,-0.67,-0.655,-0.63,-0.61,-0.595,-0.59,-0.555,-0.525,-0.47,-0.435,-0.415,-0.405,-0.365,-0.33,-0.29,-0.26,-0.25,-0.24,-0.215,-0.19,-0.16,-0.13,-0.115,-0.105,-0.11,-0.095,-0.07,-0.055,-0.055,-0.06,-0.06,-0.055,-0.03,-0.03,-0.03,-0.055,-0.045,-0.035,-0.015,-0.005,-0.015,-0.03,-0.03,-0.02,0.01,0.01,-0.005,-0.015,-0.04,-0.045,-0.045,-0.055,-0.07,-0.09,-0.1,-0.1,-0.09,-0.1,-0.09,-0.095,-0.08,-0.045,-0.015,0.035,0.09,0.135,0.185,0.265,0.345,0.425,0.5,0.585,0.665,0.75,0.84,0.93,0.99,1.055,1.1,1.12,1.11,1.09,1.02,0.88,0.65,0.37,0.1,-0.12,-0.285,-0.365,-0.405,-0.425,-0.445,-0.455,-0.465,-0.485,-0.505,-0.52,-0.53,-0.55,-0.585,-0.615,-0.625,-0.59,-0.535,-0.485,-0.4,-0.34,-0.25,-0.165,-0.105,-0.08,-0.08,-0.08,-0.085,-0.085,-0.045,-0.035,-0.04,-0.06,-0.06,-0.05,-0.035,-0.04,-0.045,-0.06,-0.07,-0.065,-0.06,-0.065,-0.075,-0.09,-0.095,-0.1,-0.09,-0.09,-0.11,-0.13,-0.15,-0.15,-0.14,-0.155,-0.16,-0.19,-0.2,-0.22,-0.21,-0.22,-0.245,-0.28,-0.295,-0.295,-0.3,-0.29,-0.32,-0.345,-0.36,-0.36,-0.36,-0.355,-0.375,-0.4,-0.42,-0.415,-0.4,-0.415,-0.435,-0.44,-0.435,-0.44,-0.42,-0.42,-0.415,-0.43,-0.405,-0.385,-0.37,-0.355,-0.34,-0.355,-0.345,-0.32,-0.31,-0.27,-0.28,-0.28,-0.28,-0.23,-0.205,-0.185,-0.175,-0.185,-0.175,-0.16,-0.12,-0.115,-0.115,-0.12,-0.125,-0.1,-0.075,-0.045,-0.06,-0.06,-0.07,-0.03,0.0,0.005,0.005,0.015,0.02,0.005,0.03,0.035,0.03,0.03,0.03,0.03,0.06,0.055,0.06,0.05,0.05,0.05,0.07,0.075,0.07,0.055,0.045,0.05,0.075,0.08,0.075,0.08,0.07,0.065,0.085,0.085,0.085,0.07,0.07,0.075,0.085,0.095,0.075,0.065,0.065,0.075,0.095,0.095,0.09,0.085,0.08,0.095,0.11,0.12,0.12,0.12,0.125,0.13,0.14,0.14,0.14,0.12,0.11,0.115
1.0,217.0,0.775,0.755,0.74,0.71,0.655,0.62,0.585,0.575,0.55,0.53,0.49,0.445,0.42,0.405,0.39,0.375,0.325,0.315,0.29,0.28,0.275,0.265,0.24,0.21,0.21,0.195,0.195,0.195,0.18,0.155,0.145,0.15,0.145,0.14,0.12,0.1,0.095,0.1,0.105,0.115,0.105,0.085,0.075,0.095,0.105,0.08,0.065,0.05,0.05,0.06,0.065,0.04,0.05,0.05,0.05,0.05,0.06,0.055,0.03,0.015,0.0,0.02,0.035,0.03,0.025,0.02,0.015,0.025,0.03,0.03,0.015,0.005,0.015,0.015,0.03,0.03,0.03,0.005,0.01,0.02,0.04,0.05,0.035,0.055,0.07,0.12,0.195,0.26,0.315,0.38,0.46,0.545,0.625,0.695,0.745,0.78,0.815,0.885,0.995,1.075,1.155,1.21,1.29,1.4,1.52,1.68,1.815,1.89,1.975,2.075,2.17,2.275,2.355,2.37,2.345,2.315,2.24,2.075,1.76,1.325,0.825,0.405,0.135,0.0,-0.08,-0.14,-0.21,-0.26,-0.285,-0.345,-0.395,-0.445,-0.45,-0.455,-0.475,-0.48,-0.525,-0.53,-0.55,-0.555,-0.555,-0.555,-0.6,-0.615,-0.63,-0.635,-0.63,-0.645,-0.67,-0.68,-0.685,-0.68,-0.67,-0.7,-0.73,-0.74,-0.765,-0.77,-0.78,-0.795,-0.825,-0.855,-0.87,-0.885,-0.88,-0.92,-0.945,-0.965,-0.995,-1.005,-1.03,-1.065,-1.105,-1.165,-1.175,-1.185,-1.21,-1.225,-1.25,-1.285,-1.31,-1.33,-1.36,-1.38,-1.415,-1.46,-1.475,-1.48,-1.485,-1.51,-1.55,-1.575,-1.58,-1.575,-1.565,-1.59,-1.6,-1.615,-1.625,-1.6,-1.58,-1.57,-1.585,-1.585,-1.565,-1.545,-1.52,-1.505,-1.5,-1.485,-1.49,-1.455,-1.395,-1.375,-1.35,-1.32,-1.305,-1.27,-1.215,-1.185,-1.165,-1.145,-1.12,-1.07,-1.01,-0.97,-0.945,-0.935,-0.905,-0.865,-0.825,-0.8,-0.775,-0.75,-0.73,-0.695,-0.65,-0.62,-0.595,-0.585,-0.58,-0.545,-0.5,-0.485,-0.475,-0.46,-0.44,-0.395,-0.375,-0.375,-0.35,-0.35,-0.33,-0.305,-0.265,-0.265,-0.26,-0.275,-0.25,-0.245,-0.215,-0.21,-0.21,-0.215,-0.225,-0.2,-0.185,-0.19,-0.185,-0.19,-0.175,-0.165,-0.14,-0.14,-0.15,-0.17,-0.145,-0.125,-0.115,-0.11,-0.135,-0.135,-0.145,-0.115,-0.09,-0.09,-0.09,-0.12,-0.11,-0.11,-0.1,-0.105,-0.105,-0.115,-0.105,-0.09,-0.065,-0.07,-0.075,-0.08
1.0,217.0,0.97,0.975,0.935,0.91,0.895,0.88,0.87,0.835,0.8,0.77,0.73,0.71,0.665,0.625,0.555,0.505,0.475,0.45,0.435,0.395,0.37,0.345,0.31,0.285,0.265,0.24,0.22,0.185,0.15,0.14,0.135,0.14,0.125,0.09,0.08,0.085,0.075,0.05,0.04,0.03,0.035,0.04,0.065,0.065,0.045,0.025,0.02,0.015,0.035,0.035,0.03,0.025,0.02,0.03,0.045,0.04,0.02,0.01,0.005,0.0,0.015,0.005,0.0,-0.015,-0.025,-0.01,-0.005,-0.01,-0.01,-0.02,-0.01,0.0,0.02,0.015,0.005,-0.005,0.0,0.01,0.02,0.035,0.035,0.03,0.025,0.075,0.125,0.18,0.235,0.285,0.375,0.46,0.57,0.635,0.71,0.77,0.825,0.905,0.97,1.04,1.11,1.165,1.23,1.33,1.415,1.505,1.595,1.675,1.72,1.785,1.86,1.95,2.02,2.09,2.13,2.165,2.145,2.075,1.94,1.685,1.31,0.885,0.51,0.195,0.005,-0.095,-0.135,-0.16,-0.21,-0.255,-0.3,-0.36,-0.39,-0.42,-0.44,-0.48,-0.505,-0.55,-0.57,-0.575,-0.585,-0.59,-0.61,-0.625,-0.635,-0.625,-0.635,-0.66,-0.685,-0.715,-0.72,-0.72,-0.715,-0.725,-0.74,-0.74,-0.75,-0.755,-0.755,-0.78,-0.815,-0.83,-0.84,-0.845,-0.855,-0.89,-0.92,-0.95,-0.975,-0.975,-1.0,-1.02,-1.06,-1.085,-1.105,-1.115,-1.125,-1.16,-1.175,-1.215,-1.23,-1.26,-1.26,-1.29,-1.345,-1.37,-1.395,-1.41,-1.41,-1.43,-1.465,-1.495,-1.51,-1.515,-1.53,-1.55,-1.57,-1.605,-1.61,-1.615,-1.61,-1.62,-1.625,-1.66,-1.655,-1.645,-1.64,-1.645,-1.655,-1.655,-1.64,-1.635,-1.595,-1.59,-1.59,-1.59,-1.57,-1.55,-1.505,-1.475,-1.47,-1.455,-1.42,-1.385,-1.355,-1.32,-1.315,-1.295,-1.275,-1.22,-1.16,-1.135,-1.125,-1.09,-1.065,-1.025,-0.97,-0.95,-0.915,-0.895,-0.855,-0.815,-0.775,-0.76,-0.75,-0.745,-0.72,-0.68,-0.63,-0.605,-0.6,-0.595,-0.575,-0.55,-0.515,-0.49,-0.49,-0.485,-0.455,-0.425,-0.395,-0.385,-0.37,-0.37,-0.355,-0.34,-0.32,-0.32,-0.305,-0.29,-0.27,-0.24,-0.21,-0.22,-0.215,-0.235,-0.235,-0.205,-0.185,-0.175,-0.17,-0.175,-0.18,-0.165,-0.15,-0.155,-0.14,-0.155,-0.14,-0.125,-0.11,-0.1,-0.115,-0.13,-0.12,-0.14,-0.11,-0.115,-0.115,-0.11,-0.105,-0.105
1.0,217.0,-0.53,-0.53,-0.56,-0.575,-0.615,-0.645,-0.655,-0.675,-0.7,-0.735,-0.765,-0.79,-0.795,-0.79,-0.81,-0.83,-0.845,-0.86,-0.835,-0.825,-0.81,-0.81,-0.805,-0.805,-0.775,-0.75,-0.71,-0.71,-0.69,-0.675,-0.635,-0.59,-0.57,-0.545,-0.535,-0.51,-0.47,-0.435,-0.415,-0.405,-0.395,-0.38,-0.34,-0.315,-0.295,-0.295,-0.3,-0.295,-0.275,-0.25,-0.24,-0.245,-0.25,-0.245,-0.225,-0.22,-0.215,-0.22,-0.22,-0.225,-0.22,-0.2,-0.18,-0.185,-0.205,-0.215,-0.2,-0.195,-0.19,-0.21,-0.215,-0.2,-0.205,-0.175,-0.175,-0.19,-0.195,-0.195,-0.17,-0.15,-0.135,-0.135,-0.13,-0.12,-0.065,-0.035,-0.01,-0.02,-0.02,-0.02,0.015,0.065,0.1,0.125,0.16,0.19,0.225,0.275,0.285,0.315,0.375,0.435,0.545,0.645,0.7,0.775,0.825,0.91,0.955,1.06,1.13,1.17,1.215,1.23,1.235,1.225,1.14,0.915,0.6,0.26,-0.045,-0.23,-0.37,-0.455,-0.55,-0.6,-0.645,-0.69,-0.74,-0.745,-0.73,-0.68,-0.615,-0.54,-0.475,-0.43,-0.41,-0.41,-0.4,-0.395,-0.385,-0.41,-0.455,-0.47,-0.455,-0.455,-0.44,-0.46,-0.48,-0.485,-0.46,-0.455,-0.465,-0.495,-0.515,-0.505,-0.52,-0.52,-0.535,-0.55,-0.565,-0.57,-0.565,-0.57,-0.595,-0.615,-0.64,-0.64,-0.65,-0.645,-0.68,-0.71,-0.715,-0.755,-0.745,-0.75,-0.755,-0.795,-0.81,-0.82,-0.83,-0.84,-0.85,-0.895,-0.925,-0.955,-0.965,-0.97,-0.995,-1.025,-1.07,-1.095,-1.11,-1.12,-1.12,-1.15,-1.165,-1.175,-1.155,-1.135,-1.135,-1.145,-1.155,-1.145,-1.15,-1.115,-1.135,-1.15,-1.15,-1.12,-1.085,-1.04,-1.04,-1.05,-1.035,-1.02,-0.99,-0.97,-0.95,-0.925,-0.915,-0.885,-0.85,-0.815,-0.785,-0.78,-0.76,-0.74,-0.705,-0.65,-0.615,-0.605,-0.575,-0.58,-0.55,-0.525,-0.485,-0.46,-0.465,-0.445,-0.405,-0.355,-0.335,-0.325,-0.325,-0.31,-0.29,-0.255,-0.245,-0.255,-0.245,-0.24,-0.22,-0.195,-0.2,-0.2,-0.215,-0.21,-0.195,-0.17,-0.175,-0.165,-0.155,-0.16,-0.15,-0.12,-0.11,-0.11,-0.12,-0.12,-0.105,-0.095,-0.075,-0.075,-0.09,-0.085,-0.08,-0.05,-0.04,-0.07,-0.055,-0.055,-0.05,-0.03,-0.04,-0.05,-0.045,-0.04,-0.02,0.005,0.01,0.0,0.0,-0.01,-0.005,-0.005,-0.005,-0.015,-0.015,-0.035
1.0,217.0,-0.76,-0.755,-0.73,-0.755,-0.765,-0.79,-0.8,-0.815,-0.82,-0.82,-0.85,-0.86,-0.905,-0.895,-0.905,-0.91,-0.955,-0.995,-1.025,-1.035,-1.055,-1.08,-1.1,-1.14,-1.185,-1.18,-1.19,-1.2,-1.24,-1.27,-1.285,-1.28,-1.27,-1.25,-1.255,-1.255,-1.27,-1.25,-1.24,-1.22,-1.19,-1.175,-1.155,-1.115,-1.06,-1.03,-1.01,-0.99,-0.96,-0.93,-0.87,-0.835,-0.82,-0.815,-0.795,-0.765,-0.735,-0.705,-0.68,-0.69,-0.675,-0.64,-0.62,-0.6,-0.595,-0.615,-0.605,-0.6,-0.56,-0.54,-0.545,-0.54,-0.55,-0.53,-0.5,-0.495,-0.49,-0.51,-0.51,-0.48,-0.46,-0.445,-0.455,-0.46,-0.455,-0.415,-0.375,-0.325,-0.295,-0.245,-0.17,-0.06,0.06,0.17,0.26,0.355,0.42,0.505,0.595,0.7,0.8,0.885,0.965,1.055,1.15,1.275,1.385,1.48,1.535,1.58,1.65,1.725,1.78,1.825,1.835,1.785,1.69,1.485,1.14,0.685,0.205,-0.12,-0.295,-0.375,-0.43,-0.5,-0.58,-0.625,-0.65,-0.675,-0.715,-0.765,-0.82,-0.845,-0.825,-0.855,-0.875,-0.89,-0.92,-0.92,-0.905,-0.895,-0.91,-0.925,-0.945,-0.935,-0.925,-0.92,-0.945,-0.98,-1.005,-1.01,-1.005,-1.02,-1.04,-1.05,-1.1,-1.095,-1.09,-1.11,-1.145,-1.185,-1.205,-1.21,-1.225,-1.235,-1.28,-1.315,-1.345,-1.375,-1.375,-1.395,-1.43,-1.475,-1.51,-1.53,-1.54,-1.56,-1.585,-1.63,-1.66,-1.67,-1.69,-1.71,-1.725,-1.765,-1.785,-1.795,-1.81,-1.805,-1.805,-1.825,-1.83,-1.835,-1.835,-1.825,-1.83,-1.83,-1.825,-1.805,-1.775,-1.75,-1.735,-1.745,-1.735,-1.72,-1.675,-1.65,-1.645,-1.625,-1.605,-1.56,-1.51,-1.475,-1.46,-1.425,-1.395,-1.345,-1.31,-1.275,-1.25,-1.23,-1.185,-1.16,-1.105,-1.09,-1.07,-1.045,-1.02,-0.98,-0.935,-0.91,-0.9,-0.875,-0.86,-0.84,-0.81,-0.8,-0.79,-0.765,-0.735,-0.7,-0.68,-0.655,-0.65,-0.64,-0.64,-0.63,-0.6,-0.58,-0.57,-0.58,-0.575,-0.565,-0.54,-0.53,-0.54,-0.545,-0.52,-0.515,-0.475,-0.475,-0.465,-0.47,-0.465,-0.46,-0.43,-0.425,-0.43,-0.445,-0.45,-0.43,-0.42,-0.405,-0.41,-0.415,-0.425,-0.41,-0.39,-0.385,-0.385,-0.41,-0.42,-0.42,-0.42,-0.43,-0.43,-0.44,-0.45,-0.44,-0.405,-0.38,-0.375,-0.385,-0.38,-0.38,-0.365,-0.345,-0.355,-0.37
1.0,217.0,0.31,0.295,0.25,0.22,0.175,0.165,0.155,0.145,0.105,0.065,0.04,0.035,0.025,0.02,-0.005,-0.025,-0.055,-0.065,-0.055,-0.06,-0.065,-0.1,-0.105,-0.12,-0.105,-0.11,-0.115,-0.125,-0.15,-0.13,-0.115,-0.125,-0.135,-0.165,-0.185,-0.17,-0.16,-0.16,-0.185,-0.195,-0.21,-0.21,-0.2,-0.205,-0.215,-0.22,-0.245,-0.235,-0.22,-0.235,-0.235,-0.25,-0.27,-0.27,-0.255,-0.255,-0.265,-0.29,-0.285,-0.285,-0.27,-0.27,-0.285,-0.305,-0.295,-0.305,-0.295,-0.285,-0.3,-0.315,-0.325,-0.315,-0.29,-0.28,-0.27,-0.3,-0.28,-0.27,-0.23,-0.205,-0.19,-0.175,-0.13,-0.075,-0.025,0.055,0.135,0.2,0.27,0.35,0.405,0.455,0.48,0.515,0.56,0.62,0.7,0.77,0.82,0.86,0.925,1.01,1.14,1.275,1.39,1.475,1.535,1.6,1.705,1.82,1.92,1.995,2.02,2.03,2.015,1.96,1.835,1.625,1.275,0.825,0.375,0.04,-0.205,-0.335,-0.39,-0.42,-0.465,-0.51,-0.57,-0.625,-0.68,-0.685,-0.71,-0.715,-0.72,-0.745,-0.745,-0.765,-0.78,-0.775,-0.78,-0.805,-0.81,-0.81,-0.815,-0.815,-0.83,-0.86,-0.89,-0.905,-0.895,-0.915,-0.93,-0.955,-0.98,-0.985,-0.975,-0.98,-1.005,-1.035,-1.06,-1.055,-1.065,-1.09,-1.115,-1.155,-1.17,-1.18,-1.205,-1.205,-1.255,-1.28,-1.33,-1.345,-1.35,-1.37,-1.415,-1.445,-1.47,-1.495,-1.505,-1.53,-1.55,-1.58,-1.61,-1.635,-1.63,-1.63,-1.67,-1.68,-1.705,-1.71,-1.705,-1.705,-1.72,-1.745,-1.755,-1.75,-1.745,-1.755,-1.76,-1.755,-1.765,-1.76,-1.73,-1.72,-1.73,-1.735,-1.725,-1.7,-1.685,-1.665,-1.66,-1.655,-1.655,-1.625,-1.59,-1.55,-1.545,-1.535,-1.52,-1.49,-1.45,-1.415,-1.4,-1.405,-1.385,-1.335,-1.295,-1.27,-1.255,-1.235,-1.215,-1.175,-1.125,-1.115,-1.09,-1.075,-1.05,-1.025,-0.965,-0.92,-0.915,-0.895,-0.89,-0.835,-0.825,-0.79,-0.775,-0.76,-0.745,-0.71,-0.69,-0.67,-0.655,-0.66,-0.645,-0.62,-0.605,-0.58,-0.575,-0.57,-0.57,-0.555,-0.53,-0.51,-0.51,-0.515,-0.505,-0.49,-0.47,-0.445,-0.445,-0.46,-0.465,-0.45,-0.435,-0.42,-0.43,-0.45,-0.45,-0.44,-0.405,-0.385,-0.38,-0.4,-0.395,-0.38,-0.37,-0.355,-0.36,-0.355,-0.34,-0.33,-0.305,-0.31,-0.295,-0.305,-0.305,-0.3
1.0,217.0,-0.415,-0.425,-0.41,-0.405,-0.41,-0.425,-0.465,-0.47,-0.475,-0.48,-0.495,-0.515,-0.535,-0.55,-0.555,-0.565,-0.565,-0.605,-0.64,-0.655,-0.67,-0.67,-0.69,-0.71,-0.735,-0.74,-0.75,-0.735,-0.75,-0.755,-0.77,-0.75,-0.725,-0.7,-0.71,-0.69,-0.685,-0.68,-0.655,-0.63,-0.605,-0.59,-0.58,-0.57,-0.535,-0.51,-0.5,-0.515,-0.505,-0.495,-0.47,-0.455,-0.44,-0.455,-0.475,-0.445,-0.43,-0.4,-0.395,-0.39,-0.41,-0.405,-0.4,-0.37,-0.375,-0.385,-0.395,-0.4,-0.395,-0.39,-0.38,-0.39,-0.385,-0.4,-0.37,-0.37,-0.355,-0.35,-0.355,-0.355,-0.34,-0.33,-0.325,-0.305,-0.305,-0.29,-0.26,-0.2,-0.135,-0.095,-0.045,0.045,0.155,0.265,0.33,0.4,0.44,0.52,0.605,0.675,0.755,0.815,0.875,0.94,1.015,1.115,1.2,1.25,1.275,1.285,1.35,1.405,1.435,1.425,1.41,1.385,1.3,1.14,0.875,0.515,0.165,-0.095,-0.235,-0.295,-0.345,-0.4,-0.47,-0.53,-0.57,-0.6,-0.645,-0.7,-0.755,-0.775,-0.8,-0.785,-0.81,-0.835,-0.855,-0.865,-0.87,-0.87,-0.885,-0.905,-0.92,-0.935,-0.94,-0.925,-0.955,-0.97,-1.0,-0.995,-1.005,-0.995,-1.01,-1.04,-1.06,-1.07,-1.06,-1.07,-1.1,-1.145,-1.175,-1.19,-1.2,-1.215,-1.24,-1.295,-1.315,-1.35,-1.365,-1.38,-1.415,-1.45,-1.49,-1.53,-1.55,-1.56,-1.6,-1.64,-1.69,-1.715,-1.74,-1.76,-1.8,-1.83,-1.875,-1.895,-1.92,-1.925,-1.945,-1.975,-2.02,-2.04,-2.04,-2.035,-2.05,-2.075,-2.09,-2.105,-2.08,-2.06,-2.055,-2.05,-2.05,-2.04,-2.02,-1.98,-1.97,-1.955,-1.94,-1.91,-1.87,-1.825,-1.795,-1.755,-1.735,-1.695,-1.655,-1.59,-1.575,-1.545,-1.51,-1.485,-1.435,-1.365,-1.32,-1.29,-1.245,-1.195,-1.15,-1.095,-1.06,-1.03,-1.005,-0.965,-0.92,-0.87,-0.825,-0.8,-0.795,-0.755,-0.72,-0.685,-0.67,-0.64,-0.64,-0.61,-0.585,-0.535,-0.525,-0.53,-0.505,-0.495,-0.465,-0.42,-0.405,-0.4,-0.395,-0.38,-0.35,-0.33,-0.305,-0.315,-0.315,-0.305,-0.285,-0.27,-0.265,-0.28,-0.29,-0.29,-0.26,-0.245,-0.245,-0.235,-0.25,-0.255,-0.245,-0.225,-0.22,-0.24,-0.24,-0.245,-0.23,-0.22,-0.215,-0.23,-0.24,-0.25,-0.26,-0.235,-0.23,-0.23,-0.25,-0.25,-0.22,-0.215,-0.22,-0.23
1.0,217.0,-0.015,-0.03,-0.045,-0.045,-0.035,-0.03,-0.04,-0.06,-0.065,-0.055,-0.05,-0.055,-0.065,-0.095,-0.1,-0.095,-0.095,-0.095,-0.105,-0.105,-0.13,-0.11,-0.1,-0.11,-0.135,-0.14,-0.165,-0.155,-0.125,-0.14,-0.145,-0.16,-0.165,-0.165,-0.155,-0.15,-0.16,-0.17,-0.18,-0.16,-0.145,-0.13,-0.125,-0.155,-0.155,-0.115,-0.11,-0.1,-0.105,-0.125,-0.125,-0.13,-0.115,-0.135,-0.155,-0.175,-0.17,-0.16,-0.155,-0.155,-0.16,-0.17,-0.175,-0.175,-0.16,-0.15,-0.165,-0.18,-0.185,-0.17,-0.155,-0.16,-0.17,-0.175,-0.17,-0.155,-0.125,-0.115,-0.115,-0.115,-0.105,-0.065,-0.02,0.01,0.045,0.085,0.145,0.21,0.28,0.325,0.36,0.405,0.45,0.53,0.595,0.655,0.7,0.745,0.835,0.9,0.97,1.035,1.095,1.165,1.25,1.36,1.445,1.475,1.5,1.525,1.575,1.66,1.67,1.67,1.65,1.595,1.495,1.35,1.125,0.82,0.495,0.23,0.04,-0.07,-0.14,-0.185,-0.235,-0.3,-0.365,-0.405,-0.445,-0.495,-0.545,-0.585,-0.595,-0.6,-0.6,-0.635,-0.655,-0.68,-0.705,-0.695,-0.69,-0.71,-0.715,-0.735,-0.75,-0.75,-0.74,-0.755,-0.785,-0.8,-0.81,-0.805,-0.815,-0.825,-0.84,-0.87,-0.905,-0.915,-0.94,-0.955,-0.995,-1.03,-1.04,-1.055,-1.06,-1.095,-1.125,-1.175,-1.205,-1.235,-1.245,-1.275,-1.315,-1.345,-1.37,-1.41,-1.41,-1.455,-1.49,-1.545,-1.58,-1.6,-1.63,-1.65,-1.7,-1.72,-1.765,-1.775,-1.785,-1.82,-1.865,-1.9,-1.935,-1.94,-1.95,-1.965,-2.01,-2.025,-2.02,-2.025,-2.01,-2.015,-2.025,-2.03,-2.045,-2.015,-1.99,-1.965,-1.98,-1.98,-1.95,-1.925,-1.885,-1.87,-1.845,-1.825,-1.79,-1.745,-1.705,-1.66,-1.65,-1.62,-1.59,-1.54,-1.515,-1.47,-1.44,-1.42,-1.385,-1.335,-1.28,-1.26,-1.23,-1.21,-1.165,-1.115,-1.07,-1.025,-1.015,-0.965,-0.93,-0.88,-0.835,-0.795,-0.775,-0.765,-0.73,-0.69,-0.64,-0.62,-0.595,-0.575,-0.55,-0.515,-0.46,-0.425,-0.42,-0.41,-0.395,-0.355,-0.315,-0.305,-0.295,-0.27,-0.25,-0.245,-0.205,-0.19,-0.19,-0.175,-0.17,-0.145,-0.125,-0.13,-0.125,-0.12,-0.12,-0.105,-0.095,-0.095,-0.105,-0.11,-0.105,-0.085,-0.075,-0.065,-0.08,-0.09,-0.075,-0.065,-0.045,-0.04,-0.06,-0.065,-0.07,-0.055,-0.045,-0.05
1.0,217.0,-0.035,-0.06,-0.07,-0.08,-0.085,-0.095,-0.105,-0.135,-0.14,-0.145,-0.14,-0.15,-0.155,-0.16,-0.175,-0.175,-0.15,-0.155,-0.18,-0.18,-0.19,-0.18,-0.17,-0.16,-0.175,-0.18,-0.2,-0.18,-0.17,-0.165,-0.185,-0.195,-0.21,-0.185,-0.19,-0.195,-0.19,-0.205,-0.2,-0.195,-0.18,-0.17,-0.185,-0.215,-0.215,-0.205,-0.18,-0.195,-0.195,-0.225,-0.21,-0.205,-0.175,-0.18,-0.19,-0.21,-0.21,-0.205,-0.195,-0.19,-0.19,-0.21,-0.2,-0.19,-0.18,-0.18,-0.195,-0.195,-0.2,-0.195,-0.17,-0.17,-0.175,-0.18,-0.2,-0.18,-0.16,-0.155,-0.155,-0.165,-0.15,-0.095,-0.055,-0.015,0.03,0.08,0.155,0.245,0.33,0.4,0.455,0.505,0.555,0.615,0.67,0.735,0.795,0.865,0.93,1.01,1.09,1.165,1.245,1.34,1.455,1.56,1.665,1.72,1.765,1.835,1.905,1.995,2.055,2.075,2.06,2.01,1.915,1.76,1.5,1.105,0.675,0.295,0.06,-0.075,-0.14,-0.2,-0.275,-0.37,-0.435,-0.48,-0.5,-0.535,-0.56,-0.585,-0.605,-0.625,-0.61,-0.62,-0.66,-0.69,-0.7,-0.7,-0.695,-0.695,-0.715,-0.725,-0.735,-0.73,-0.725,-0.735,-0.745,-0.76,-0.775,-0.775,-0.78,-0.79,-0.83,-0.85,-0.875,-0.87,-0.86,-0.885,-0.89,-0.93,-0.94,-0.955,-0.955,-0.985,-1.01,-1.035,-1.06,-1.08,-1.085,-1.09,-1.13,-1.16,-1.18,-1.2,-1.21,-1.245,-1.275,-1.315,-1.34,-1.355,-1.36,-1.385,-1.425,-1.455,-1.495,-1.51,-1.51,-1.535,-1.56,-1.595,-1.62,-1.625,-1.65,-1.65,-1.7,-1.72,-1.75,-1.745,-1.75,-1.76,-1.765,-1.785,-1.795,-1.795,-1.775,-1.785,-1.785,-1.795,-1.8,-1.785,-1.765,-1.77,-1.77,-1.775,-1.76,-1.74,-1.695,-1.685,-1.66,-1.66,-1.63,-1.605,-1.565,-1.535,-1.525,-1.51,-1.465,-1.425,-1.385,-1.36,-1.335,-1.34,-1.305,-1.25,-1.21,-1.18,-1.165,-1.155,-1.125,-1.08,-1.035,-0.995,-0.99,-0.985,-0.935,-0.9,-0.865,-0.825,-0.8,-0.78,-0.76,-0.71,-0.67,-0.645,-0.625,-0.61,-0.59,-0.56,-0.525,-0.51,-0.475,-0.485,-0.46,-0.425,-0.385,-0.365,-0.35,-0.34,-0.33,-0.3,-0.28,-0.26,-0.25,-0.245,-0.24,-0.24,-0.205,-0.19,-0.185,-0.19,-0.17,-0.16,-0.125,-0.11,-0.105,-0.12,-0.125,-0.105,-0.095,-0.08,-0.1,-0.115,-0.11,-0.11,-0.085,-0.09
1.0,217.0,0.275,0.25,0.235,0.205,0.165,0.14,0.12,0.115,0.09,0.055,0.025,0.025,0.005,0.005,-0.03,-0.03,-0.07,-0.08,-0.09,-0.085,-0.09,-0.11,-0.125,-0.145,-0.13,-0.12,-0.13,-0.145,-0.165,-0.18,-0.175,-0.155,-0.16,-0.175,-0.205,-0.195,-0.2,-0.2,-0.19,-0.205,-0.225,-0.225,-0.225,-0.21,-0.21,-0.23,-0.245,-0.24,-0.24,-0.235,-0.24,-0.255,-0.265,-0.275,-0.27,-0.265,-0.27,-0.29,-0.295,-0.285,-0.275,-0.285,-0.28,-0.29,-0.31,-0.325,-0.32,-0.31,-0.32,-0.335,-0.34,-0.35,-0.34,-0.33,-0.325,-0.345,-0.355,-0.35,-0.33,-0.305,-0.29,-0.285,-0.28,-0.25,-0.205,-0.145,-0.085,-0.005,0.07,0.15,0.24,0.32,0.375,0.435,0.485,0.545,0.64,0.71,0.79,0.86,0.915,0.96,1.06,1.19,1.305,1.4,1.485,1.545,1.635,1.755,1.855,1.91,1.93,1.93,1.895,1.81,1.65,1.36,0.925,0.455,0.055,-0.21,-0.345,-0.41,-0.465,-0.545,-0.615,-0.67,-0.72,-0.785,-0.815,-0.845,-0.855,-0.87,-0.89,-0.92,-0.945,-0.96,-0.965,-0.96,-0.98,-1.0,-1.01,-1.025,-1.015,-1.015,-1.015,-1.04,-1.06,-1.08,-1.075,-1.085,-1.115,-1.13,-1.14,-1.16,-1.16,-1.17,-1.175,-1.21,-1.24,-1.255,-1.27,-1.285,-1.31,-1.33,-1.375,-1.41,-1.405,-1.42,-1.45,-1.48,-1.52,-1.55,-1.57,-1.595,-1.615,-1.655,-1.71,-1.745,-1.765,-1.76,-1.78,-1.82,-1.855,-1.875,-1.89,-1.885,-1.905,-1.93,-1.95,-1.96,-1.965,-1.95,-1.965,-1.99,-2.025,-2.02,-1.995,-1.98,-1.975,-1.97,-1.98,-1.99,-1.97,-1.945,-1.935,-1.93,-1.935,-1.925,-1.885,-1.86,-1.84,-1.825,-1.805,-1.785,-1.74,-1.715,-1.675,-1.66,-1.64,-1.625,-1.575,-1.53,-1.5,-1.48,-1.475,-1.45,-1.425,-1.36,-1.335,-1.3,-1.29,-1.26,-1.225,-1.185,-1.165,-1.125,-1.12,-1.085,-1.055,-1.0,-0.975,-0.95,-0.94,-0.9,-0.885,-0.835,-0.815,-0.81,-0.81,-0.805,-0.79,-0.78,-0.76,-0.77,-0.775,-0.77,-0.755,-0.73,-0.715,-0.725,-0.72,-0.695,-0.67,-0.625,-0.58,-0.52,-0.46,-0.38,-0.295,-0.205,-0.13,-0.05,0.045,0.125,0.23,0.35,0.465,0.56,0.63,0.635,0.615,0.555,0.425,0.17,-0.17,-0.49,-0.695,-0.79,-0.815,-0.84,-0.875,-0.9,-0.895,-0.89,-0.905,-0.94,-0.98,-1.0
1.0,217.0,-1.405,-1.42,-1.45,-1.48,-1.52,-1.55,-1.57,-1.595,-1.615,-1.655,-1.71,-1.745,-1.765,-1.76,-1.78,-1.82,-1.855,-1.875,-1.89,-1.885,-1.905,-1.93,-1.95,-1.96,-1.965,-1.95,-1.965,-1.99,-2.025,-2.02,-1.995,-1.98,-1.975,-1.97,-1.98,-1.99,-1.97,-1.945,-1.935,-1.93,-1.935,-1.925,-1.885,-1.86,-1.84,-1.825,-1.805,-1.785,-1.74,-1.715,-1.675,-1.66,-1.64,-1.625,-1.575,-1.53,-1.5,-1.48,-1.475,-1.45,-1.425,-1.36,-1.335,-1.3,-1.29,-1.26,-1.225,-1.185,-1.165,-1.125,-1.12,-1.085,-1.055,-1.0,-0.975,-0.95,-0.94,-0.9,-0.885,-0.835,-0.815,-0.81,-0.81,-0.805,-0.79,-0.78,-0.76,-0.77,-0.775,-0.77,-0.755,-0.73,-0.715,-0.725,-0.72,-0.695,-0.67,-0.625,-0.58,-0.52,-0.46,-0.38,-0.295,-0.205,-0.13,-0.05,0.045,0.125,0.23,0.35,0.465,0.56,0.63,0.635,0.615,0.555,0.425,0.17,-0.17,-0.49,-0.695,-0.79,-0.815,-0.84,-0.875,-0.9,-0.895,-0.89,-0.905,-0.94,-0.98,-1.0,-1.025,-1.03,-1.035,-1.025,-1.01,-0.96,-0.875,-0.81,-0.725,-0.64,-0.6,-0.555,-0.525,-0.5,-0.49,-0.49,-0.5,-0.51,-0.495,-0.505,-0.49,-0.5,-0.5,-0.5,-0.51,-0.495,-0.49,-0.505,-0.53,-0.53,-0.515,-0.52,-0.515,-0.55,-0.53,-0.535,-0.515,-0.495,-0.485,-0.525,-0.55,-0.555,-0.56,-0.565,-0.57,-0.59,-0.62,-0.63,-0.635,-0.64,-0.645,-0.68,-0.7,-0.71,-0.705,-0.705,-0.71,-0.735,-0.755,-0.765,-0.76,-0.755,-0.76,-0.75,-0.755,-0.77,-0.75,-0.73,-0.71,-0.71,-0.72,-0.705,-0.68,-0.65,-0.64,-0.635,-0.625,-0.625,-0.615,-0.575,-0.525,-0.525,-0.5,-0.48,-0.445,-0.43,-0.405,-0.405,-0.39,-0.375,-0.35,-0.34,-0.34,-0.35,-0.355,-0.345,-0.33,-0.305,-0.305,-0.295,-0.295,-0.295,-0.285,-0.28,-0.27,-0.275,-0.295,-0.295,-0.275,-0.275,-0.26,-0.265,-0.3,-0.3,-0.275,-0.275,-0.26,-0.265,-0.275,-0.29,-0.28,-0.275,-0.27,-0.285,-0.295,-0.295,-0.285,-0.27,-0.27,-0.285,-0.295,-0.285,-0.255,-0.24,-0.235,-0.255,-0.265,-0.26,-0.235,-0.225,-0.24,-0.24,-0.26,-0.265,-0.25,-0.245,-0.25,-0.26,-0.26,-0.26,-0.27,-0.235,-0.23,-0.235,-0.25,-0.245,-0.235,-0.235,-0.235,-0.225,-0.24,-0.24,-0.24,-0.22,-0.22,-0.235,-0.25,-0.255
1.0,217.0,0.38,0.375,0.375,0.38,0.405,0.44,0.445,0.44,0.44,0.465,0.495,0.525,0.535,0.53,0.545,0.565,0.585,0.61,0.63,0.63,0.64,0.665,0.69,0.71,0.745,0.75,0.74,0.75,0.79,0.82,0.835,0.835,0.84,0.875,0.905,0.93,0.93,0.94,0.93,0.95,0.985,1.0,1.01,1.01,0.985,1.005,1.02,1.025,1.02,1.0,0.97,0.965,0.95,0.95,0.915,0.895,0.86,0.855,0.82,0.795,0.75,0.69,0.655,0.61,0.6,0.56,0.52,0.455,0.415,0.375,0.345,0.31,0.28,0.22,0.185,0.16,0.145,0.13,0.1,0.07,0.045,0.015,0.02,0.03,0.005,-0.005,-0.02,-0.015,0.0,0.025,0.03,0.045,0.065,0.12,0.14,0.145,0.125,0.08,0.06,0.01,-0.035,-0.06,-0.105,-0.175,-0.27,-0.41,-0.63,-0.845,-1.1,-1.285,-1.44,-1.535,-1.565,-1.555,-1.535,-1.485,-1.425,-1.35,-1.27,-1.2,-1.13,-1.08,-1.01,-0.95,-0.885,-0.845,-0.81,-0.815,-0.81,-0.795,-0.775,-0.73,-0.735,-0.72,-0.7,-0.69,-0.645,-0.615,-0.6,-0.6,-0.585,-0.565,-0.535,-0.5,-0.47,-0.44,-0.42,-0.345,-0.25,-0.18,-0.14,-0.115,-0.09,-0.075,-0.055,-0.03,-0.035,-0.05,-0.06,-0.055,-0.04,-0.03,-0.02,-0.035,-0.045,-0.04,-0.01,-0.005,-0.02,-0.035,-0.045,-0.04,-0.05,-0.03,-0.04,-0.03,-0.05,-0.035,-0.02,0.005,0.01,-0.005,-0.02,0.01,0.025,0.035,0.055,0.045,0.035,0.045,0.055,0.065,0.065,0.06,0.055,0.05,0.065,0.08,0.085,0.08,0.075,0.07,0.09,0.1,0.125,0.12,0.12,0.12,0.13,0.15,0.125,0.14,0.125,0.15,0.15,0.16,0.17,0.16,0.135,0.145,0.155,0.18,0.16,0.17,0.17,0.18,0.18,0.2,0.18,0.175,0.165,0.165,0.175,0.18,0.17,0.155,0.135,0.135,0.14,0.14,0.12,0.09,0.055,0.055,0.06,0.07,0.055,0.04,0.02,0.0,0.015,0.03,0.02,0.01,-0.005,-0.005,-0.01,-0.005,-0.005,-0.015,-0.03,-0.035,-0.025,-0.02,-0.03,-0.04,-0.06,-0.055,-0.025,-0.015,-0.01,-0.025,-0.04,-0.03,-0.03,-0.02,-0.02,-0.025,-0.05,-0.045,-0.04,-0.01,-0.02,-0.025,-0.04,-0.02,-0.02,-0.01,-0.005,-0.03,-0.045,-0.05,-0.035,-0.045,-0.05,-0.065,-0.06,-0.075,-0.045,-0.025
1.0,217.0,-0.405,-0.405,-0.415,-0.43,-0.41,-0.39,-0.375,-0.35,-0.35,-0.345,-0.335,-0.295,-0.275,-0.25,-0.25,-0.25,-0.23,-0.2,-0.17,-0.16,-0.155,-0.16,-0.13,-0.1,-0.085,-0.085,-0.065,-0.075,-0.055,-0.025,0.005,0.005,0.005,0.005,0.005,0.03,0.05,0.055,0.055,0.045,0.05,0.075,0.075,0.08,0.065,0.07,0.07,0.08,0.11,0.095,0.09,0.085,0.1,0.12,0.13,0.12,0.125,0.11,0.12,0.14,0.145,0.155,0.135,0.135,0.14,0.14,0.15,0.145,0.135,0.115,0.11,0.12,0.145,0.135,0.1,0.11,0.12,0.135,0.16,0.165,0.17,0.195,0.225,0.27,0.34,0.405,0.46,0.555,0.64,0.715,0.78,0.84,0.895,0.93,0.985,1.055,1.135,1.195,1.255,1.29,1.365,1.47,1.575,1.685,1.77,1.84,1.9,1.975,2.045,2.135,2.21,2.26,2.29,2.295,2.28,2.19,2.04,1.76,1.355,0.915,0.535,0.295,0.165,0.095,0.045,-0.01,-0.06,-0.115,-0.18,-0.235,-0.27,-0.28,-0.275,-0.31,-0.335,-0.36,-0.38,-0.375,-0.37,-0.385,-0.42,-0.44,-0.445,-0.45,-0.46,-0.475,-0.485,-0.515,-0.525,-0.525,-0.53,-0.55,-0.58,-0.6,-0.615,-0.62,-0.64,-0.655,-0.685,-0.705,-0.75,-0.755,-0.76,-0.8,-0.825,-0.87,-0.87,-0.895,-0.91,-0.935,-0.985,-1.025,-1.045,-1.045,-1.07,-1.105,-1.135,-1.165,-1.18,-1.215,-1.245,-1.275,-1.3,-1.335,-1.365,-1.38,-1.39,-1.42,-1.47,-1.485,-1.52,-1.505,-1.5,-1.515,-1.545,-1.565,-1.57,-1.555,-1.55,-1.545,-1.555,-1.55,-1.55,-1.525,-1.485,-1.485,-1.48,-1.47,-1.45,-1.41,-1.375,-1.365,-1.335,-1.305,-1.27,-1.205,-1.165,-1.145,-1.135,-1.11,-1.055,-1.03,-0.975,-0.94,-0.915,-0.89,-0.845,-0.795,-0.755,-0.73,-0.705,-0.68,-0.655,-0.61,-0.55,-0.53,-0.525,-0.505,-0.48,-0.445,-0.41,-0.395,-0.38,-0.355,-0.33,-0.295,-0.265,-0.25,-0.25,-0.24,-0.23,-0.205,-0.185,-0.18,-0.185,-0.195,-0.18,-0.135,-0.11,-0.095,-0.12,-0.085,-0.075,-0.05,-0.045,-0.03,-0.025,-0.04,-0.025,-0.005,0.02,0.005,-0.005,-0.01,0.01,0.015,0.03,0.025,0.02,0.01,0.025,0.045,0.055,0.055,0.025,0.035,0.055,0.065,0.08,0.075,0.065,0.055,0.055,0.055,0.08,0.06,0.05,0.045,0.04,0.06
1.0,217.0,0.415,0.39,0.365,0.36,0.33,0.335,0.32,0.3,0.275,0.27,0.27,0.25,0.25,0.22,0.21,0.195,0.2,0.205,0.2,0.17,0.155,0.135,0.155,0.155,0.155,0.135,0.12,0.125,0.11,0.145,0.14,0.125,0.105,0.1,0.115,0.125,0.11,0.08,0.065,0.05,0.065,0.08,0.075,0.06,0.06,0.06,0.075,0.075,0.07,0.045,0.035,0.04,0.06,0.075,0.065,0.05,0.035,0.035,0.035,0.06,0.05,0.015,0.01,0.0,0.005,0.02,0.02,0.005,-0.01,0.0,0.01,0.025,0.015,0.005,0.0,-0.005,0.025,0.035,0.035,0.035,0.035,0.05,0.09,0.13,0.14,0.19,0.23,0.32,0.4,0.485,0.545,0.585,0.635,0.7,0.77,0.85,0.92,0.97,1.05,1.12,1.205,1.28,1.365,1.465,1.545,1.65,1.73,1.805,1.86,1.915,1.98,2.05,2.1,2.105,2.085,2.01,1.885,1.685,1.365,0.985,0.595,0.28,0.085,0.015,-0.05,-0.075,-0.155,-0.255,-0.33,-0.38,-0.415,-0.425,-0.465,-0.5,-0.53,-0.535,-0.535,-0.545,-0.565,-0.57,-0.59,-0.6,-0.605,-0.6,-0.61,-0.63,-0.64,-0.645,-0.66,-0.65,-0.67,-0.7,-0.725,-0.73,-0.75,-0.735,-0.76,-0.79,-0.83,-0.845,-0.85,-0.855,-0.9,-0.93,-0.96,-0.995,-1.0,-1.005,-1.05,-1.075,-1.125,-1.155,-1.17,-1.19,-1.23,-1.27,-1.305,-1.335,-1.365,-1.4,-1.435,-1.48,-1.495,-1.52,-1.535,-1.54,-1.555,-1.605,-1.64,-1.655,-1.67,-1.66,-1.685,-1.695,-1.715,-1.73,-1.725,-1.73,-1.735,-1.755,-1.765,-1.76,-1.735,-1.695,-1.7,-1.7,-1.68,-1.66,-1.64,-1.595,-1.59,-1.585,-1.565,-1.545,-1.49,-1.465,-1.43,-1.41,-1.39,-1.34,-1.285,-1.25,-1.22,-1.215,-1.185,-1.145,-1.095,-1.05,-1.03,-1.015,-0.985,-0.925,-0.885,-0.86,-0.82,-0.805,-0.78,-0.745,-0.715,-0.675,-0.65,-0.635,-0.615,-0.59,-0.555,-0.515,-0.51,-0.49,-0.47,-0.44,-0.415,-0.37,-0.355,-0.35,-0.34,-0.315,-0.285,-0.265,-0.255,-0.255,-0.25,-0.23,-0.21,-0.18,-0.19,-0.185,-0.155,-0.14,-0.11,-0.095,-0.085,-0.09,-0.115,-0.1,-0.08,-0.05,-0.045,-0.055,-0.05,-0.05,-0.03,-0.005,-0.02,-0.025,-0.04,-0.03,-0.025,-0.025,-0.015,-0.02,-0.03,-0.02,0.0,0.015,0.015,0.005,-0.01,-0.005,0.0,0.03
1.0,217.0,0.75,0.74,0.685,0.64,0.6,0.56,0.55,0.545,0.505,0.465,0.43,0.405,0.385,0.37,0.35,0.305,0.275,0.26,0.24,0.235,0.205,0.18,0.16,0.145,0.16,0.165,0.15,0.125,0.125,0.11,0.11,0.115,0.095,0.09,0.09,0.08,0.095,0.08,0.08,0.06,0.06,0.055,0.07,0.08,0.07,0.045,0.035,0.04,0.045,0.07,0.06,0.05,0.025,0.015,0.02,0.025,0.02,0.01,0.0,0.005,0.0,0.015,0.01,-0.01,-0.03,-0.025,-0.02,-0.015,-0.02,-0.045,-0.065,-0.065,-0.06,-0.03,-0.035,-0.045,-0.05,-0.05,-0.03,0.0,0.0,0.015,0.01,0.035,0.085,0.145,0.19,0.255,0.335,0.425,0.515,0.61,0.66,0.7,0.72,0.78,0.86,0.94,1.005,1.05,1.09,1.16,1.265,1.365,1.455,1.555,1.605,1.675,1.75,1.84,1.935,1.96,2.0,1.99,1.955,1.895,1.75,1.5,1.145,0.735,0.38,0.135,-0.02,-0.075,-0.125,-0.17,-0.225,-0.275,-0.35,-0.405,-0.46,-0.5,-0.52,-0.535,-0.555,-0.575,-0.605,-0.61,-0.605,-0.605,-0.62,-0.635,-0.675,-0.67,-0.665,-0.675,-0.69,-0.725,-0.735,-0.765,-0.75,-0.77,-0.775,-0.8,-0.85,-0.865,-0.865,-0.89,-0.93,-0.97,-1.01,-1.03,-1.045,-1.075,-1.1,-1.15,-1.185,-1.215,-1.225,-1.26,-1.3,-1.345,-1.375,-1.4,-1.415,-1.435,-1.48,-1.525,-1.565,-1.595,-1.62,-1.62,-1.65,-1.685,-1.73,-1.75,-1.735,-1.745,-1.765,-1.8,-1.815,-1.825,-1.81,-1.8,-1.8,-1.81,-1.815,-1.81,-1.79,-1.76,-1.76,-1.765,-1.75,-1.725,-1.69,-1.66,-1.635,-1.62,-1.585,-1.56,-1.515,-1.475,-1.425,-1.405,-1.37,-1.33,-1.26,-1.215,-1.175,-1.155,-1.12,-1.07,-1.04,-0.99,-0.955,-0.925,-0.905,-0.865,-0.82,-0.78,-0.75,-0.725,-0.705,-0.66,-0.615,-0.575,-0.56,-0.545,-0.53,-0.495,-0.45,-0.405,-0.375,-0.37,-0.31,-0.265,-0.2,-0.11,-0.06,0.02,0.09,0.185,0.285,0.405,0.515,0.605,0.705,0.83,0.96,1.09,1.19,1.255,1.325,1.395,1.48,1.54,1.585,1.62,1.655,1.69,1.745,1.775,1.82,1.82,1.83,1.83,1.83,1.845,1.835,1.805,1.69,1.46,1.105,0.74,0.385,0.13,-0.015,-0.1,-0.145,-0.2,-0.24,-0.28,-0.345,-0.39,-0.41,-0.41,-0.445,-0.48,-0.51,-0.52
1.0,217.0,-1.1,-1.15,-1.185,-1.215,-1.225,-1.26,-1.3,-1.345,-1.375,-1.4,-1.415,-1.435,-1.48,-1.525,-1.565,-1.595,-1.62,-1.62,-1.65,-1.685,-1.73,-1.75,-1.735,-1.745,-1.765,-1.8,-1.815,-1.825,-1.81,-1.8,-1.8,-1.81,-1.815,-1.81,-1.79,-1.76,-1.76,-1.765,-1.75,-1.725,-1.69,-1.66,-1.635,-1.62,-1.585,-1.56,-1.515,-1.475,-1.425,-1.405,-1.37,-1.33,-1.26,-1.215,-1.175,-1.155,-1.12,-1.07,-1.04,-0.99,-0.955,-0.925,-0.905,-0.865,-0.82,-0.78,-0.75,-0.725,-0.705,-0.66,-0.615,-0.575,-0.56,-0.545,-0.53,-0.495,-0.45,-0.405,-0.375,-0.37,-0.31,-0.265,-0.2,-0.11,-0.06,0.02,0.09,0.185,0.285,0.405,0.515,0.605,0.705,0.83,0.96,1.09,1.19,1.255,1.325,1.395,1.48,1.54,1.585,1.62,1.655,1.69,1.745,1.775,1.82,1.82,1.83,1.83,1.83,1.845,1.835,1.805,1.69,1.46,1.105,0.74,0.385,0.13,-0.015,-0.1,-0.145,-0.2,-0.24,-0.28,-0.345,-0.39,-0.41,-0.41,-0.445,-0.48,-0.51,-0.52,-0.54,-0.525,-0.545,-0.57,-0.6,-0.6,-0.605,-0.605,-0.62,-0.645,-0.68,-0.675,-0.685,-0.685,-0.71,-0.745,-0.765,-0.785,-0.785,-0.8,-0.83,-0.855,-0.885,-0.9,-0.91,-0.94,-0.96,-1.005,-1.03,-1.055,-1.065,-1.095,-1.115,-1.145,-1.185,-1.205,-1.22,-1.235,-1.28,-1.31,-1.35,-1.375,-1.385,-1.4,-1.42,-1.45,-1.485,-1.485,-1.475,-1.47,-1.475,-1.5,-1.515,-1.52,-1.5,-1.49,-1.49,-1.495,-1.5,-1.515,-1.485,-1.45,-1.44,-1.45,-1.44,-1.405,-1.375,-1.34,-1.33,-1.32,-1.305,-1.245,-1.215,-1.18,-1.15,-1.12,-1.1,-1.06,-1.015,-0.975,-0.935,-0.9,-0.86,-0.825,-0.79,-0.755,-0.7,-0.685,-0.675,-0.615,-0.575,-0.52,-0.49,-0.465,-0.45,-0.425,-0.395,-0.355,-0.33,-0.33,-0.31,-0.285,-0.255,-0.22,-0.2,-0.195,-0.19,-0.175,-0.15,-0.125,-0.125,-0.135,-0.13,-0.115,-0.095,-0.065,-0.07,-0.07,-0.065,-0.055,-0.035,-0.02,-0.02,-0.025,-0.025,-0.025,-0.015,0.01,-0.005,-0.02,-0.015,0.0,0.01,0.015,0.02,0.015,-0.005,0.01,0.01,0.03,0.025,0.015,0.01,0.025,0.05,0.05,0.05,0.055,0.04,0.035,0.055,0.06,0.055,0.05,0.055,0.06,0.055,0.075,0.07,0.045,0.045,0.05,0.07,0.075
1.0,217.0,-1.505,-1.54,-1.56,-1.59,-1.625,-1.68,-1.715,-1.75,-1.76,-1.79,-1.84,-1.89,-1.93,-1.95,-1.955,-1.99,-2.035,-2.07,-2.11,-2.12,-2.125,-2.155,-2.185,-2.22,-2.265,-2.26,-2.255,-2.27,-2.31,-2.33,-2.345,-2.35,-2.345,-2.355,-2.37,-2.395,-2.4,-2.4,-2.39,-2.395,-2.4,-2.415,-2.415,-2.385,-2.36,-2.35,-2.34,-2.35,-2.345,-2.32,-2.28,-2.26,-2.265,-2.25,-2.225,-2.195,-2.155,-2.135,-2.125,-2.115,-2.085,-2.065,-2.03,-1.99,-1.97,-1.945,-1.925,-1.88,-1.84,-1.795,-1.78,-1.75,-1.725,-1.69,-1.615,-1.6,-1.565,-1.525,-1.51,-1.455,-1.415,-1.39,-1.38,-1.39,-1.365,-1.345,-1.31,-1.295,-1.29,-1.28,-1.26,-1.215,-1.21,-1.18,-1.165,-1.15,-1.11,-1.04,-0.96,-0.89,-0.835,-0.74,-0.635,-0.505,-0.36,-0.235,-0.125,-0.02,0.085,0.235,0.37,0.49,0.585,0.615,0.595,0.53,0.435,0.235,-0.055,-0.4,-0.705,-0.885,-0.945,-0.98,-1.0,-1.015,-1.01,-1.015,-0.995,-1.015,-1.06,-1.085,-1.135,-1.16,-1.17,-1.175,-1.165,-1.145,-1.095,-1.015,-0.905,-0.82,-0.745,-0.665,-0.615,-0.57,-0.54,-0.515,-0.505,-0.5,-0.49,-0.5,-0.465,-0.45,-0.445,-0.46,-0.455,-0.44,-0.42,-0.41,-0.43,-0.435,-0.44,-0.45,-0.42,-0.425,-0.43,-0.435,-0.425,-0.41,-0.39,-0.39,-0.41,-0.42,-0.425,-0.405,-0.395,-0.41,-0.405,-0.42,-0.425,-0.42,-0.4,-0.42,-0.435,-0.435,-0.445,-0.435,-0.42,-0.425,-0.435,-0.445,-0.46,-0.44,-0.415,-0.4,-0.4,-0.405,-0.41,-0.39,-0.35,-0.33,-0.305,-0.315,-0.295,-0.27,-0.25,-0.225,-0.195,-0.21,-0.19,-0.16,-0.135,-0.135,-0.14,-0.155,-0.145,-0.145,-0.13,-0.135,-0.145,-0.135,-0.14,-0.145,-0.14,-0.15,-0.165,-0.195,-0.215,-0.22,-0.22,-0.245,-0.26,-0.29,-0.29,-0.305,-0.29,-0.3,-0.31,-0.32,-0.34,-0.34,-0.35,-0.34,-0.355,-0.37,-0.375,-0.37,-0.36,-0.36,-0.38,-0.38,-0.365,-0.355,-0.34,-0.335,-0.335,-0.33,-0.33,-0.31,-0.28,-0.265,-0.235,-0.215,-0.185,-0.135,-0.07,-0.005,0.04,0.065,0.095,0.13,0.175,0.205,0.255,0.295,0.35,0.415,0.47,0.46,0.43,0.325,0.215,0.13,0.02,-0.02,-0.04,-0.07,-0.12,-0.15,-0.18,-0.21,-0.21,-0.2,-0.2,-0.235,-0.34,-0.465,-0.59,-0.64
1.0,217.0,-0.425,-0.43,-0.435,-0.425,-0.41,-0.39,-0.39,-0.41,-0.42,-0.425,-0.405,-0.395,-0.41,-0.405,-0.42,-0.425,-0.42,-0.4,-0.42,-0.435,-0.435,-0.445,-0.435,-0.42,-0.425,-0.435,-0.445,-0.46,-0.44,-0.415,-0.4,-0.4,-0.405,-0.41,-0.39,-0.35,-0.33,-0.305,-0.315,-0.295,-0.27,-0.25,-0.225,-0.195,-0.21,-0.19,-0.16,-0.135,-0.135,-0.14,-0.155,-0.145,-0.145,-0.13,-0.135,-0.145,-0.135,-0.14,-0.145,-0.14,-0.15,-0.165,-0.195,-0.215,-0.22,-0.22,-0.245,-0.26,-0.29,-0.29,-0.305,-0.29,-0.3,-0.31,-0.32,-0.34,-0.34,-0.35,-0.34,-0.355,-0.37,-0.375,-0.37,-0.36,-0.36,-0.38,-0.38,-0.365,-0.355,-0.34,-0.335,-0.335,-0.33,-0.33,-0.31,-0.28,-0.265,-0.235,-0.215,-0.185,-0.135,-0.07,-0.005,0.04,0.065,0.095,0.13,0.175,0.205,0.255,0.295,0.35,0.415,0.47,0.46,0.43,0.325,0.215,0.13,0.02,-0.02,-0.04,-0.07,-0.12,-0.15,-0.18,-0.21,-0.21,-0.2,-0.2,-0.235,-0.34,-0.465,-0.59,-0.64,-0.615,-0.6,-0.57,-0.57,-0.575,-0.59,-0.605,-0.575,-0.56,-0.575,-0.58,-0.6,-0.6,-0.59,-0.595,-0.61,-0.635,-0.64,-0.655,-0.645,-0.63,-0.635,-0.66,-0.685,-0.68,-0.68,-0.66,-0.67,-0.69,-0.71,-0.715,-0.725,-0.74,-0.76,-0.78,-0.775,-0.785,-0.775,-0.775,-0.795,-0.82,-0.83,-0.85,-0.855,-0.86,-0.855,-0.875,-0.915,-0.925,-0.92,-0.93,-0.935,-0.96,-0.97,-0.99,-0.985,-0.985,-0.995,-1.025,-1.04,-1.055,-1.05,-1.065,-1.085,-1.095,-1.115,-1.105,-1.085,-1.08,-1.075,-1.105,-1.125,-1.13,-1.13,-1.12,-1.105,-1.11,-1.11,-1.115,-1.105,-1.075,-1.07,-1.065,-1.08,-1.055,-1.04,-1.02,-1.01,-1.005,-1.01,-1.0,-0.975,-0.93,-0.915,-0.885,-0.89,-0.865,-0.84,-0.795,-0.78,-0.765,-0.735,-0.725,-0.69,-0.665,-0.64,-0.625,-0.625,-0.61,-0.585,-0.54,-0.52,-0.505,-0.515,-0.53,-0.505,-0.495,-0.485,-0.455,-0.45,-0.435,-0.415,-0.39,-0.37,-0.375,-0.385,-0.38,-0.36,-0.355,-0.345,-0.355,-0.35,-0.345,-0.34,-0.32,-0.31,-0.32,-0.335,-0.34,-0.325,-0.325,-0.315,-0.315,-0.32,-0.315,-0.305,-0.295,-0.3,-0.295,-0.305,-0.295,-0.275,-0.26,-0.25,-0.27,-0.275,-0.27,-0.27,-0.235,-0.24,-0.25,-0.28,-0.295,-0.28,-0.265
1.0,217.0,0.685,0.66,0.635,0.61,0.6,0.585,0.555,0.515,0.47,0.43,0.385,0.37,0.32,0.285,0.25,0.2,0.185,0.175,0.135,0.095,0.045,0.025,-0.005,-0.015,-0.03,-0.075,-0.13,-0.15,-0.155,-0.175,-0.185,-0.185,-0.2,-0.225,-0.23,-0.23,-0.24,-0.25,-0.275,-0.285,-0.28,-0.285,-0.285,-0.3,-0.305,-0.29,-0.285,-0.27,-0.27,-0.295,-0.3,-0.285,-0.295,-0.28,-0.275,-0.285,-0.295,-0.3,-0.28,-0.27,-0.285,-0.305,-0.325,-0.32,-0.335,-0.315,-0.325,-0.355,-0.36,-0.345,-0.315,-0.29,-0.285,-0.285,-0.3,-0.31,-0.305,-0.285,-0.29,-0.28,-0.295,-0.255,-0.235,-0.18,-0.15,-0.1,-0.045,0.035,0.13,0.235,0.305,0.375,0.425,0.47,0.54,0.605,0.675,0.74,0.78,0.87,0.95,1.02,1.08,1.15,1.205,1.315,1.375,1.43,1.48,1.515,1.555,1.605,1.655,1.695,1.685,1.62,1.505,1.315,1.02,0.66,0.275,-0.025,-0.215,-0.295,-0.345,-0.37,-0.435,-0.525,-0.61,-0.67,-0.715,-0.77,-0.8,-0.84,-0.865,-0.875,-0.885,-0.9,-0.885,-0.905,-0.95,-0.96,-0.95,-0.95,-0.955,-0.975,-1.005,-1.015,-1.005,-1.0,-1.015,-1.025,-1.055,-1.085,-1.085,-1.085,-1.09,-1.13,-1.18,-1.205,-1.215,-1.225,-1.255,-1.28,-1.33,-1.345,-1.345,-1.37,-1.395,-1.435,-1.475,-1.505,-1.51,-1.525,-1.575,-1.61,-1.66,-1.695,-1.715,-1.76,-1.785,-1.795,-1.845,-1.88,-1.895,-1.91,-1.93,-1.97,-2.005,-2.025,-2.035,-2.045,-2.05,-2.065,-2.08,-2.09,-2.105,-2.09,-2.09,-2.1,-2.12,-2.115,-2.095,-2.075,-2.05,-2.045,-2.05,-2.03,-2.01,-1.975,-1.95,-1.955,-1.925,-1.89,-1.855,-1.8,-1.785,-1.75,-1.725,-1.685,-1.65,-1.58,-1.55,-1.53,-1.515,-1.47,-1.415,-1.38,-1.34,-1.31,-1.275,-1.24,-1.195,-1.125,-1.095,-1.06,-1.045,-1.02,-0.975,-0.93,-0.905,-0.885,-0.86,-0.83,-0.785,-0.75,-0.72,-0.69,-0.685,-0.66,-0.62,-0.595,-0.59,-0.57,-0.56,-0.53,-0.51,-0.48,-0.465,-0.455,-0.48,-0.47,-0.435,-0.415,-0.41,-0.405,-0.415,-0.405,-0.38,-0.36,-0.35,-0.345,-0.355,-0.34,-0.33,-0.32,-0.31,-0.33,-0.335,-0.335,-0.315,-0.295,-0.28,-0.29,-0.295,-0.3,-0.29,-0.285,-0.28,-0.285,-0.285,-0.29,-0.275,-0.25,-0.245,-0.24,-0.265,-0.25,-0.24,-0.2
0.0,217.0,-0.715,-0.725,-0.715,-0.735,-0.71,-0.685,-0.7,-0.71,-0.7,-0.705,-0.68,-0.68,-0.685,-0.71,-0.725,-0.715,-0.675,-0.665,-0.665,-0.67,-0.68,-0.67,-0.68,-0.66,-0.675,-0.68,-0.67,-0.665,-0.64,-0.65,-0.68,-0.695,-0.685,-0.67,-0.65,-0.65,-0.67,-0.685,-0.685,-0.685,-0.67,-0.68,-0.67,-0.675,-0.66,-0.65,-0.645,-0.65,-0.655,-0.66,-0.66,-0.655,-0.645,-0.66,-0.665,-0.675,-0.675,-0.66,-0.635,-0.635,-0.65,-0.685,-0.69,-0.68,-0.645,-0.63,-0.635,-0.655,-0.66,-0.645,-0.655,-0.645,-0.67,-0.67,-0.66,-0.65,-0.65,-0.65,-0.675,-0.705,-0.68,-0.67,-0.69,-0.655,-0.65,-0.665,-0.645,-0.625,-0.625,-0.635,-0.66,-0.665,-0.665,-0.64,-0.61,-0.61,-0.62,-0.635,-0.645,-0.635,-0.595,-0.585,-0.565,-0.55,-0.495,-0.425,-0.34,-0.225,-0.05,0.19,0.42,0.605,0.72,0.73,0.665,0.525,0.325,0.095,-0.19,-0.545,-0.86,-1.075,-1.1,-1.025,-0.925,-0.86,-0.835,-0.815,-0.795,-0.78,-0.765,-0.765,-0.78,-0.79,-0.775,-0.765,-0.76,-0.76,-0.77,-0.795,-0.79,-0.795,-0.77,-0.765,-0.8,-0.795,-0.815,-0.8,-0.79,-0.8,-0.815,-0.84,-0.84,-0.835,-0.83,-0.82,-0.83,-0.83,-0.835,-0.835,-0.82,-0.83,-0.83,-0.86,-0.865,-0.84,-0.855,-0.865,-0.87,-0.88,-0.885,-0.89,-0.88,-0.905,-0.91,-0.925,-0.935,-0.915,-0.92,-0.93,-0.945,-0.97,-0.97,-0.98,-0.97,-0.98,-1.005,-1.03,-1.07,-1.075,-1.085,-1.095,-1.125,-1.165,-1.18,-1.195,-1.22,-1.25,-1.285,-1.315,-1.33,-1.33,-1.33,-1.335,-1.35,-1.36,-1.365,-1.35,-1.35,-1.33,-1.33,-1.32,-1.295,-1.255,-1.24,-1.195,-1.175,-1.15,-1.115,-1.065,-1.055,-1.0,-0.975,-0.945,-0.92,-0.875,-0.83,-0.825,-0.795,-0.785,-0.77,-0.74,-0.705,-0.695,-0.69,-0.69,-0.69,-0.655,-0.615,-0.62,-0.62,-0.635,-0.63,-0.61,-0.585,-0.575,-0.585,-0.59,-0.585,-0.57,-0.55,-0.545,-0.565,-0.56,-0.555,-0.525,-0.51,-0.515,-0.515,-0.53,-0.515,-0.505,-0.5,-0.505,-0.515,-0.525,-0.5,-0.49,-0.485,-0.47,-0.475,-0.485,-0.49,-0.47,-0.465,-0.455,-0.46,-0.485,-0.495,-0.48,-0.465,-0.455,-0.475,-0.48,-0.485,-0.48,-0.47,-0.465,-0.485,-0.49,-0.495,-0.48,-0.475,-0.475,-0.475,-0.5,-0.495,-0.49,-0.475,-0.465
0.0,217.0,-0.47,-0.465,-0.455,-0.46,-0.485,-0.495,-0.48,-0.465,-0.455,-0.475,-0.48,-0.485,-0.48,-0.47,-0.465,-0.485,-0.49,-0.495,-0.48,-0.475,-0.475,-0.475,-0.5,-0.495,-0.49,-0.475,-0.465,-0.475,-0.49,-0.5,-0.48,-0.465,-0.465,-0.465,-0.485,-0.48,-0.46,-0.46,-0.47,-0.47,-0.465,-0.465,-0.435,-0.435,-0.435,-0.445,-0.47,-0.465,-0.45,-0.435,-0.44,-0.465,-0.475,-0.47,-0.46,-0.445,-0.44,-0.455,-0.475,-0.48,-0.47,-0.45,-0.445,-0.46,-0.485,-0.475,-0.46,-0.46,-0.455,-0.47,-0.485,-0.48,-0.49,-0.45,-0.455,-0.475,-0.485,-0.485,-0.475,-0.45,-0.445,-0.45,-0.455,-0.465,-0.445,-0.43,-0.425,-0.425,-0.435,-0.435,-0.42,-0.42,-0.405,-0.415,-0.425,-0.415,-0.4,-0.37,-0.375,-0.385,-0.39,-0.385,-0.32,-0.26,-0.205,-0.12,-0.03,0.15,0.395,0.665,0.85,0.975,1.035,1.025,0.97,0.85,0.65,0.37,0.015,-0.365,-0.665,-0.785,-0.77,-0.7,-0.655,-0.595,-0.57,-0.55,-0.525,-0.53,-0.54,-0.565,-0.57,-0.555,-0.545,-0.555,-0.57,-0.56,-0.565,-0.54,-0.535,-0.545,-0.54,-0.545,-0.535,-0.54,-0.525,-0.54,-0.54,-0.545,-0.55,-0.525,-0.535,-0.565,-0.575,-0.585,-0.57,-0.56,-0.57,-0.57,-0.595,-0.615,-0.6,-0.58,-0.59,-0.605,-0.615,-0.615,-0.6,-0.59,-0.61,-0.63,-0.635,-0.645,-0.635,-0.645,-0.64,-0.64,-0.655,-0.665,-0.685,-0.685,-0.7,-0.7,-0.73,-0.705,-0.71,-0.705,-0.725,-0.75,-0.77,-0.79,-0.785,-0.78,-0.795,-0.85,-0.88,-0.9,-0.905,-0.93,-0.96,-0.995,-1.04,-1.045,-1.05,-1.07,-1.08,-1.105,-1.115,-1.125,-1.13,-1.13,-1.13,-1.15,-1.14,-1.135,-1.115,-1.09,-1.08,-1.07,-1.065,-1.045,-1.02,-0.985,-0.945,-0.91,-0.885,-0.86,-0.83,-0.8,-0.765,-0.735,-0.71,-0.675,-0.63,-0.6,-0.58,-0.56,-0.555,-0.515,-0.49,-0.455,-0.45,-0.44,-0.43,-0.42,-0.4,-0.385,-0.39,-0.405,-0.4,-0.375,-0.355,-0.34,-0.33,-0.35,-0.335,-0.31,-0.305,-0.3,-0.295,-0.315,-0.33,-0.315,-0.295,-0.28,-0.26,-0.28,-0.29,-0.28,-0.265,-0.255,-0.25,-0.275,-0.285,-0.295,-0.285,-0.27,-0.255,-0.245,-0.25,-0.26,-0.26,-0.245,-0.23,-0.235,-0.245,-0.24,-0.24,-0.23,-0.225,-0.245,-0.235,-0.23,-0.22,-0.21,-0.23,-0.235,-0.25,-0.225
0.0,217.0,-0.25,-0.26,-0.26,-0.245,-0.23,-0.235,-0.245,-0.24,-0.24,-0.23,-0.225,-0.245,-0.235,-0.23,-0.22,-0.21,-0.23,-0.235,-0.25,-0.225,-0.225,-0.205,-0.205,-0.205,-0.22,-0.22,-0.215,-0.2,-0.2,-0.22,-0.215,-0.22,-0.215,-0.215,-0.185,-0.19,-0.2,-0.21,-0.21,-0.2,-0.22,-0.225,-0.23,-0.23,-0.22,-0.21,-0.205,-0.21,-0.225,-0.225,-0.22,-0.2,-0.195,-0.2,-0.21,-0.2,-0.185,-0.165,-0.17,-0.195,-0.21,-0.205,-0.19,-0.185,-0.18,-0.19,-0.205,-0.195,-0.17,-0.16,-0.16,-0.17,-0.19,-0.19,-0.175,-0.16,-0.16,-0.17,-0.185,-0.18,-0.17,-0.15,-0.16,-0.15,-0.17,-0.17,-0.19,-0.19,-0.17,-0.17,-0.17,-0.175,-0.17,-0.16,-0.155,-0.17,-0.185,-0.175,-0.17,-0.14,-0.095,-0.065,-0.02,0.035,0.115,0.195,0.33,0.505,0.705,0.915,1.1,1.255,1.35,1.37,1.33,1.205,1.05,0.9,0.66,0.36,0.03,-0.24,-0.38,-0.41,-0.385,-0.37,-0.345,-0.3,-0.275,-0.255,-0.255,-0.28,-0.29,-0.31,-0.29,-0.27,-0.27,-0.28,-0.285,-0.295,-0.29,-0.305,-0.305,-0.325,-0.32,-0.33,-0.315,-0.295,-0.3,-0.325,-0.35,-0.355,-0.33,-0.325,-0.335,-0.335,-0.34,-0.34,-0.33,-0.325,-0.34,-0.35,-0.365,-0.355,-0.345,-0.335,-0.35,-0.355,-0.365,-0.375,-0.37,-0.355,-0.36,-0.375,-0.39,-0.395,-0.41,-0.39,-0.395,-0.41,-0.44,-0.45,-0.445,-0.44,-0.43,-0.46,-0.47,-0.49,-0.49,-0.475,-0.485,-0.515,-0.555,-0.57,-0.585,-0.58,-0.59,-0.62,-0.64,-0.665,-0.67,-0.67,-0.69,-0.74,-0.775,-0.805,-0.815,-0.83,-0.84,-0.86,-0.885,-0.9,-0.9,-0.905,-0.915,-0.93,-0.94,-0.96,-0.94,-0.915,-0.9,-0.89,-0.895,-0.875,-0.835,-0.81,-0.78,-0.765,-0.755,-0.735,-0.7,-0.645,-0.62,-0.59,-0.545,-0.51,-0.47,-0.43,-0.42,-0.395,-0.375,-0.345,-0.32,-0.285,-0.26,-0.265,-0.265,-0.25,-0.215,-0.19,-0.19,-0.195,-0.21,-0.195,-0.18,-0.155,-0.14,-0.13,-0.145,-0.15,-0.135,-0.12,-0.11,-0.1,-0.105,-0.11,-0.1,-0.085,-0.08,-0.085,-0.09,-0.08,-0.075,-0.05,-0.045,-0.06,-0.09,-0.07,-0.055,-0.035,-0.02,-0.03,-0.055,-0.04,-0.01,-0.01,-0.015,-0.02,-0.015,-0.02,-0.01,0.005,0.0,0.01,-0.01,-0.02,-0.005,0.005,-0.005,-0.025
1.0,217.0,0.61,0.61,0.625,0.63,0.6,0.575,0.545,0.52,0.5,0.49,0.47,0.42,0.38,0.35,0.325,0.295,0.25,0.2,0.15,0.11,0.065,0.035,0.01,-0.055,-0.095,-0.125,-0.15,-0.165,-0.195,-0.245,-0.27,-0.315,-0.295,-0.315,-0.34,-0.345,-0.365,-0.375,-0.365,-0.36,-0.365,-0.375,-0.39,-0.395,-0.39,-0.385,-0.375,-0.4,-0.42,-0.425,-0.41,-0.4,-0.4,-0.425,-0.43,-0.42,-0.41,-0.4,-0.41,-0.41,-0.42,-0.435,-0.405,-0.4,-0.4,-0.42,-0.435,-0.44,-0.425,-0.42,-0.41,-0.425,-0.43,-0.435,-0.425,-0.425,-0.42,-0.435,-0.45,-0.445,-0.43,-0.4,-0.39,-0.36,-0.34,-0.31,-0.275,-0.215,-0.145,-0.08,0.01,0.095,0.205,0.295,0.365,0.425,0.46,0.51,0.595,0.69,0.775,0.84,0.905,1.0,1.115,1.24,1.375,1.46,1.5,1.565,1.65,1.77,1.835,1.855,1.84,1.795,1.72,1.555,1.24,0.775,0.315,-0.045,-0.255,-0.345,-0.41,-0.48,-0.575,-0.635,-0.685,-0.72,-0.735,-0.775,-0.8,-0.83,-0.825,-0.83,-0.855,-0.865,-0.89,-0.9,-0.91,-0.9,-0.935,-0.95,-0.98,-0.99,-0.985,-1.0,-1.005,-1.035,-1.045,-1.055,-1.065,-1.08,-1.105,-1.12,-1.155,-1.175,-1.195,-1.205,-1.22,-1.26,-1.295,-1.315,-1.325,-1.335,-1.385,-1.41,-1.44,-1.485,-1.515,-1.53,-1.55,-1.6,-1.65,-1.68,-1.69,-1.705,-1.745,-1.78,-1.825,-1.84,-1.855,-1.875,-1.89,-1.93,-1.965,-1.985,-1.99,-1.985,-2.0,-2.02,-2.035,-2.04,-2.04,-2.02,-2.025,-2.03,-2.045,-2.025,-2.005,-1.97,-1.965,-1.96,-1.955,-1.925,-1.895,-1.845,-1.825,-1.805,-1.775,-1.76,-1.705,-1.67,-1.63,-1.6,-1.57,-1.53,-1.48,-1.43,-1.38,-1.345,-1.32,-1.27,-1.205,-1.185,-1.145,-1.1,-1.065,-1.025,-0.98,-0.93,-0.91,-0.895,-0.855,-0.825,-0.79,-0.745,-0.73,-0.7,-0.69,-0.675,-0.625,-0.605,-0.59,-0.59,-0.59,-0.57,-0.555,-0.5,-0.475,-0.465,-0.46,-0.435,-0.42,-0.39,-0.375,-0.38,-0.38,-0.365,-0.34,-0.32,-0.315,-0.31,-0.3,-0.295,-0.28,-0.255,-0.255,-0.26,-0.265,-0.255,-0.24,-0.225,-0.225,-0.24,-0.255,-0.245,-0.23,-0.215,-0.23,-0.225,-0.235,-0.235,-0.205,-0.185,-0.205,-0.21,-0.22,-0.225,-0.19,-0.18,-0.185,-0.205,-0.21,-0.225,-0.215,-0.185,-0.185,-0.185
1.0,217.0,0.605,0.605,0.565,0.5,0.43,0.375,0.335,0.31,0.28,0.245,0.21,0.17,0.13,0.095,0.03,-0.035,-0.09,-0.11,-0.135,-0.135,-0.16,-0.185,-0.205,-0.22,-0.225,-0.245,-0.27,-0.285,-0.31,-0.32,-0.295,-0.3,-0.305,-0.325,-0.33,-0.33,-0.315,-0.305,-0.32,-0.315,-0.33,-0.335,-0.335,-0.34,-0.34,-0.34,-0.345,-0.33,-0.315,-0.305,-0.325,-0.34,-0.36,-0.365,-0.355,-0.345,-0.345,-0.34,-0.35,-0.35,-0.335,-0.345,-0.37,-0.39,-0.395,-0.385,-0.37,-0.355,-0.365,-0.375,-0.395,-0.405,-0.42,-0.42,-0.405,-0.39,-0.385,-0.365,-0.355,-0.335,-0.32,-0.335,-0.365,-0.345,-0.32,-0.275,-0.215,-0.16,-0.085,0.02,0.11,0.215,0.28,0.315,0.385,0.45,0.54,0.62,0.71,0.775,0.86,0.955,1.045,1.14,1.23,1.36,1.48,1.575,1.665,1.765,1.875,1.97,2.025,2.035,2.005,1.93,1.76,1.465,0.99,0.46,0.04,-0.195,-0.295,-0.375,-0.45,-0.535,-0.62,-0.67,-0.75,-0.79,-0.815,-0.825,-0.825,-0.83,-0.83,-0.85,-0.875,-0.9,-0.905,-0.91,-0.93,-0.94,-0.955,-0.965,-0.97,-0.975,-0.985,-1.0,-1.035,-1.045,-1.045,-1.045,-1.07,-1.1,-1.125,-1.14,-1.15,-1.155,-1.18,-1.21,-1.255,-1.24,-1.25,-1.26,-1.29,-1.335,-1.37,-1.39,-1.415,-1.43,-1.475,-1.5,-1.535,-1.57,-1.6,-1.635,-1.675,-1.685,-1.73,-1.76,-1.79,-1.785,-1.81,-1.84,-1.86,-1.875,-1.885,-1.895,-1.915,-1.93,-1.96,-1.96,-1.96,-1.94,-1.94,-1.955,-1.975,-1.98,-1.97,-1.935,-1.92,-1.92,-1.91,-1.89,-1.865,-1.835,-1.81,-1.8,-1.775,-1.735,-1.69,-1.65,-1.61,-1.6,-1.57,-1.53,-1.485,-1.43,-1.385,-1.37,-1.355,-1.32,-1.28,-1.22,-1.19,-1.17,-1.13,-1.09,-1.05,-1.0,-0.98,-0.96,-0.93,-0.905,-0.85,-0.825,-0.81,-0.78,-0.76,-0.73,-0.695,-0.67,-0.65,-0.65,-0.62,-0.59,-0.565,-0.52,-0.505,-0.51,-0.495,-0.485,-0.46,-0.435,-0.425,-0.44,-0.435,-0.415,-0.38,-0.34,-0.335,-0.34,-0.325,-0.305,-0.305,-0.265,-0.265,-0.275,-0.27,-0.275,-0.275,-0.25,-0.245,-0.245,-0.26,-0.27,-0.26,-0.25,-0.255,-0.265,-0.27,-0.255,-0.23,-0.19,-0.205,-0.23,-0.27,-0.265,-0.24,-0.235,-0.245,-0.26,-0.285,-0.275,-0.255,-0.24,-0.25,-0.245,-0.245,-0.23
1.0,217.0,0.59,0.565,0.515,0.48,0.45,0.445,0.415,0.37,0.31,0.265,0.225,0.205,0.175,0.125,0.085,0.045,0.01,-0.015,-0.025,-0.055,-0.1,-0.145,-0.175,-0.18,-0.185,-0.21,-0.22,-0.245,-0.24,-0.23,-0.225,-0.255,-0.25,-0.27,-0.27,-0.27,-0.26,-0.265,-0.29,-0.295,-0.295,-0.285,-0.265,-0.275,-0.285,-0.31,-0.3,-0.285,-0.26,-0.27,-0.29,-0.3,-0.31,-0.29,-0.275,-0.29,-0.32,-0.34,-0.33,-0.32,-0.31,-0.305,-0.31,-0.32,-0.33,-0.31,-0.305,-0.315,-0.34,-0.33,-0.325,-0.305,-0.28,-0.285,-0.29,-0.295,-0.29,-0.275,-0.265,-0.265,-0.265,-0.25,-0.22,-0.195,-0.15,-0.09,-0.025,0.05,0.155,0.255,0.34,0.41,0.48,0.525,0.59,0.69,0.78,0.855,0.915,0.985,1.045,1.1,1.205,1.305,1.41,1.53,1.64,1.71,1.77,1.85,1.955,2.025,2.11,2.14,2.11,2.005,1.825,1.53,1.1,0.63,0.21,-0.065,-0.21,-0.28,-0.315,-0.365,-0.43,-0.51,-0.555,-0.605,-0.645,-0.66,-0.68,-0.685,-0.72,-0.74,-0.74,-0.735,-0.745,-0.75,-0.78,-0.815,-0.8,-0.82,-0.805,-0.825,-0.84,-0.855,-0.885,-0.89,-0.88,-0.895,-0.91,-0.955,-0.95,-0.945,-0.955,-0.985,-1.025,-1.05,-1.05,-1.05,-1.05,-1.085,-1.115,-1.165,-1.185,-1.185,-1.2,-1.23,-1.28,-1.32,-1.34,-1.36,-1.375,-1.405,-1.435,-1.455,-1.45,-1.45,-1.46,-1.51,-1.545,-1.57,-1.59,-1.58,-1.595,-1.625,-1.65,-1.67,-1.685,-1.69,-1.685,-1.715,-1.72,-1.74,-1.73,-1.725,-1.73,-1.73,-1.745,-1.74,-1.725,-1.715,-1.695,-1.7,-1.7,-1.685,-1.665,-1.645,-1.62,-1.615,-1.595,-1.6,-1.56,-1.525,-1.495,-1.47,-1.455,-1.44,-1.405,-1.36,-1.33,-1.3,-1.275,-1.265,-1.225,-1.18,-1.135,-1.11,-1.09,-1.065,-1.02,-0.985,-0.92,-0.89,-0.875,-0.865,-0.835,-0.8,-0.765,-0.74,-0.73,-0.71,-0.68,-0.65,-0.615,-0.6,-0.575,-0.565,-0.55,-0.525,-0.495,-0.49,-0.49,-0.48,-0.455,-0.43,-0.405,-0.405,-0.405,-0.4,-0.385,-0.355,-0.345,-0.345,-0.35,-0.335,-0.32,-0.3,-0.285,-0.29,-0.31,-0.295,-0.28,-0.27,-0.26,-0.26,-0.25,-0.26,-0.25,-0.23,-0.205,-0.2,-0.2,-0.21,-0.2,-0.185,-0.19,-0.195,-0.23,-0.24,-0.235,-0.21,-0.185,-0.195,-0.19,-0.2,-0.195,-0.175
1.0,217.0,0.995,0.96,0.945,0.92,0.88,0.85,0.81,0.79,0.755,0.73,0.68,0.615,0.58,0.535,0.5,0.48,0.43,0.375,0.32,0.3,0.28,0.24,0.195,0.135,0.09,0.075,0.04,0.03,0.005,-0.02,-0.035,-0.04,-0.02,-0.02,-0.015,-0.03,-0.045,-0.035,-0.03,-0.025,-0.03,-0.03,-0.04,-0.04,-0.025,-0.02,-0.035,-0.03,-0.05,-0.045,-0.025,-0.015,-0.025,-0.045,-0.045,-0.04,-0.02,-0.03,-0.035,-0.04,-0.05,-0.05,-0.05,-0.05,-0.055,-0.065,-0.07,-0.065,-0.055,-0.065,-0.075,-0.075,-0.09,-0.08,-0.055,-0.055,-0.06,-0.085,-0.09,-0.075,-0.055,-0.035,0.0,0.015,0.04,0.12,0.195,0.275,0.36,0.445,0.515,0.615,0.7,0.765,0.825,0.875,0.94,1.035,1.14,1.23,1.3,1.36,1.415,1.53,1.63,1.735,1.775,1.79,1.83,1.9,1.975,2.025,2.025,2.025,1.995,1.91,1.795,1.58,1.265,0.86,0.485,0.215,0.06,-0.015,-0.08,-0.14,-0.215,-0.285,-0.335,-0.4,-0.445,-0.5,-0.55,-0.565,-0.575,-0.565,-0.6,-0.64,-0.64,-0.65,-0.65,-0.64,-0.665,-0.69,-0.71,-0.715,-0.705,-0.705,-0.73,-0.75,-0.77,-0.78,-0.78,-0.78,-0.795,-0.82,-0.835,-0.84,-0.84,-0.84,-0.865,-0.895,-0.925,-0.945,-0.95,-0.97,-1.0,-1.05,-1.09,-1.12,-1.13,-1.165,-1.195,-1.24,-1.28,-1.31,-1.335,-1.37,-1.405,-1.45,-1.485,-1.52,-1.535,-1.555,-1.59,-1.615,-1.64,-1.665,-1.67,-1.68,-1.715,-1.75,-1.765,-1.775,-1.795,-1.805,-1.825,-1.84,-1.86,-1.855,-1.86,-1.855,-1.87,-1.875,-1.875,-1.875,-1.855,-1.82,-1.81,-1.81,-1.81,-1.775,-1.74,-1.71,-1.69,-1.69,-1.655,-1.615,-1.56,-1.535,-1.505,-1.475,-1.465,-1.405,-1.365,-1.3,-1.26,-1.245,-1.215,-1.155,-1.115,-1.055,-1.01,-0.975,-0.925,-0.86,-0.775,-0.695,-0.615,-0.555,-0.475,-0.345,-0.225,-0.095,0.025,0.15,0.275,0.42,0.565,0.695,0.795,0.885,0.995,1.1,1.2,1.275,1.355,1.405,1.48,1.56,1.645,1.715,1.775,1.825,1.85,1.89,1.92,1.98,2.01,2.02,1.975,1.885,1.73,1.45,1.025,0.555,0.18,-0.06,-0.17,-0.22,-0.265,-0.305,-0.315,-0.305,-0.295,-0.28,-0.305,-0.36,-0.38,-0.38,-0.375,-0.4,-0.43,-0.46,-0.485,-0.475,-0.48,-0.465,-0.45,-0.455
1.0,217.0,-0.82,-0.835,-0.84,-0.84,-0.84,-0.865,-0.895,-0.925,-0.945,-0.95,-0.97,-1.0,-1.05,-1.09,-1.12,-1.13,-1.165,-1.195,-1.24,-1.28,-1.31,-1.335,-1.37,-1.405,-1.45,-1.485,-1.52,-1.535,-1.555,-1.59,-1.615,-1.64,-1.665,-1.67,-1.68,-1.715,-1.75,-1.765,-1.775,-1.795,-1.805,-1.825,-1.84,-1.86,-1.855,-1.86,-1.855,-1.87,-1.875,-1.875,-1.875,-1.855,-1.82,-1.81,-1.81,-1.81,-1.775,-1.74,-1.71,-1.69,-1.69,-1.655,-1.615,-1.56,-1.535,-1.505,-1.475,-1.465,-1.405,-1.365,-1.3,-1.26,-1.245,-1.215,-1.155,-1.115,-1.055,-1.01,-0.975,-0.925,-0.86,-0.775,-0.695,-0.615,-0.555,-0.475,-0.345,-0.225,-0.095,0.025,0.15,0.275,0.42,0.565,0.695,0.795,0.885,0.995,1.1,1.2,1.275,1.355,1.405,1.48,1.56,1.645,1.715,1.775,1.825,1.85,1.89,1.92,1.98,2.01,2.02,1.975,1.885,1.73,1.45,1.025,0.555,0.18,-0.06,-0.17,-0.22,-0.265,-0.305,-0.315,-0.305,-0.295,-0.28,-0.305,-0.36,-0.38,-0.38,-0.375,-0.4,-0.43,-0.46,-0.485,-0.475,-0.48,-0.465,-0.45,-0.455,-0.46,-0.465,-0.465,-0.465,-0.5,-0.51,-0.505,-0.515,-0.505,-0.52,-0.535,-0.575,-0.59,-0.59,-0.6,-0.59,-0.61,-0.63,-0.64,-0.655,-0.655,-0.67,-0.685,-0.72,-0.735,-0.75,-0.755,-0.77,-0.795,-0.825,-0.865,-0.88,-0.875,-0.89,-0.93,-0.945,-0.975,-0.995,-0.975,-0.99,-1.005,-1.02,-1.04,-1.05,-1.06,-1.045,-1.045,-1.075,-1.085,-1.07,-1.04,-1.04,-1.035,-1.025,-1.04,-0.985,-0.96,-0.93,-0.935,-0.915,-0.885,-0.845,-0.8,-0.755,-0.735,-0.71,-0.695,-0.655,-0.62,-0.565,-0.535,-0.515,-0.5,-0.44,-0.395,-0.37,-0.35,-0.34,-0.32,-0.28,-0.235,-0.2,-0.215,-0.205,-0.195,-0.17,-0.13,-0.105,-0.105,-0.1,-0.095,-0.07,-0.05,-0.04,-0.04,-0.055,-0.06,-0.065,-0.055,-0.04,-0.04,-0.065,-0.06,-0.06,-0.04,-0.04,-0.045,-0.045,-0.055,-0.035,-0.01,0.005,0.01,0.0,0.005,0.015,0.015,0.025,0.015,-0.005,-0.015,0.005,0.025,0.04,0.03,0.035,0.02,0.03,0.035,0.045,0.025,0.015,0.005,0.03,0.035,0.055,0.04,0.02,0.02,0.025,0.025,0.04,0.03,0.015,0.005,0.02,0.03,0.03,0.015,0.0,-0.005,0.015,0.03,0.025,0.015
0.0,217.0,-0.105,-0.085,-0.085,-0.09,-0.09,-0.07,-0.075,-0.07,-0.08,-0.085,-0.105,-0.08,-0.06,-0.055,-0.07,-0.06,-0.06,-0.07,-0.07,-0.055,-0.06,-0.065,-0.075,-0.065,-0.06,-0.05,-0.06,-0.08,-0.09,-0.08,-0.08,-0.06,-0.07,-0.1,-0.105,-0.085,-0.075,-0.08,-0.09,-0.115,-0.105,-0.08,-0.06,-0.065,-0.065,-0.085,-0.095,-0.085,-0.085,-0.085,-0.09,-0.1,-0.11,-0.105,-0.08,-0.095,-0.07,-0.085,-0.095,-0.085,-0.095,-0.09,-0.095,-0.125,-0.135,-0.12,-0.12,-0.09,-0.1,-0.105,-0.13,-0.11,-0.1,-0.095,-0.11,-0.135,-0.135,-0.13,-0.11,-0.095,-0.105,-0.11,-0.11,-0.105,-0.09,-0.075,-0.075,-0.09,-0.09,-0.075,-0.06,-0.06,-0.07,-0.075,-0.085,-0.06,-0.05,-0.045,-0.05,-0.075,-0.045,-0.02,0.02,0.06,0.085,0.11,0.195,0.33,0.505,0.72,0.91,1.035,1.145,1.235,1.235,1.16,1.005,0.83,0.63,0.365,0.065,-0.245,-0.405,-0.44,-0.37,-0.285,-0.225,-0.19,-0.185,-0.205,-0.21,-0.2,-0.18,-0.19,-0.195,-0.21,-0.215,-0.205,-0.2,-0.21,-0.195,-0.22,-0.225,-0.225,-0.21,-0.21,-0.215,-0.23,-0.25,-0.24,-0.215,-0.22,-0.245,-0.265,-0.28,-0.265,-0.255,-0.255,-0.28,-0.31,-0.315,-0.315,-0.3,-0.3,-0.315,-0.335,-0.335,-0.33,-0.31,-0.32,-0.32,-0.335,-0.35,-0.35,-0.35,-0.34,-0.375,-0.4,-0.41,-0.42,-0.425,-0.415,-0.455,-0.475,-0.495,-0.505,-0.505,-0.505,-0.54,-0.57,-0.6,-0.615,-0.625,-0.645,-0.685,-0.71,-0.735,-0.76,-0.765,-0.795,-0.825,-0.86,-0.89,-0.89,-0.91,-0.91,-0.93,-0.965,-0.985,-0.975,-0.955,-0.94,-0.945,-0.95,-0.93,-0.905,-0.875,-0.84,-0.825,-0.8,-0.785,-0.74,-0.69,-0.645,-0.615,-0.6,-0.575,-0.53,-0.495,-0.45,-0.435,-0.415,-0.405,-0.375,-0.33,-0.305,-0.28,-0.27,-0.27,-0.24,-0.225,-0.185,-0.185,-0.185,-0.18,-0.17,-0.15,-0.145,-0.14,-0.14,-0.14,-0.115,-0.1,-0.08,-0.1,-0.1,-0.09,-0.095,-0.08,-0.085,-0.1,-0.095,-0.095,-0.085,-0.065,-0.05,-0.04,-0.055,-0.05,-0.05,-0.05,-0.025,-0.04,-0.035,-0.035,-0.03,-0.015,0.0,-0.005,-0.015,-0.025,-0.01,0.01,0.015,0.0,-0.025,-0.005,-0.02,0.0,0.005,0.0,0.0,-0.005,-0.005,0.005,0.02,0.015,0.015,0.01,0.005
0.0,217.0,-0.005,-0.005,0.005,0.02,0.015,0.015,0.01,0.005,0.015,0.02,0.01,-0.005,0.005,0.015,0.015,0.02,0.02,0.005,0.01,0.015,0.04,0.045,0.03,0.02,0.01,0.005,0.02,0.035,0.04,0.04,0.04,0.045,0.075,0.07,0.05,0.05,0.045,0.05,0.065,0.07,0.06,0.045,0.045,0.05,0.07,0.07,0.07,0.06,0.05,0.07,0.07,0.075,0.06,0.05,0.045,0.045,0.07,0.09,0.08,0.055,0.05,0.07,0.06,0.06,0.055,0.035,0.02,0.035,0.055,0.065,0.055,0.05,0.065,0.06,0.08,0.075,0.06,0.05,0.045,0.05,0.07,0.085,0.065,0.06,0.055,0.055,0.075,0.07,0.07,0.055,0.05,0.075,0.085,0.095,0.095,0.1,0.11,0.13,0.145,0.15,0.155,0.17,0.21,0.255,0.31,0.375,0.475,0.615,0.805,1.015,1.2,1.325,1.395,1.4,1.35,1.265,1.15,0.975,0.725,0.385,-0.005,-0.285,-0.375,-0.33,-0.235,-0.16,-0.1,-0.045,-0.015,-0.02,-0.01,-0.015,-0.02,-0.015,0.0,0.0,-0.005,-0.03,-0.03,-0.03,-0.01,-0.005,-0.015,-0.035,-0.025,-0.03,-0.01,-0.005,-0.02,-0.035,-0.05,-0.04,-0.03,-0.035,-0.045,-0.065,-0.08,-0.06,-0.05,-0.055,-0.075,-0.07,-0.08,-0.08,-0.07,-0.09,-0.095,-0.11,-0.115,-0.115,-0.115,-0.1,-0.11,-0.13,-0.145,-0.13,-0.12,-0.13,-0.15,-0.175,-0.195,-0.18,-0.17,-0.185,-0.19,-0.21,-0.22,-0.23,-0.25,-0.245,-0.26,-0.31,-0.335,-0.345,-0.34,-0.36,-0.39,-0.425,-0.45,-0.47,-0.475,-0.5,-0.535,-0.575,-0.605,-0.61,-0.625,-0.635,-0.665,-0.705,-0.72,-0.715,-0.705,-0.715,-0.715,-0.73,-0.73,-0.73,-0.695,-0.675,-0.65,-0.635,-0.615,-0.565,-0.525,-0.49,-0.475,-0.46,-0.44,-0.385,-0.34,-0.305,-0.295,-0.275,-0.245,-0.215,-0.17,-0.145,-0.135,-0.11,-0.095,-0.07,-0.055,-0.025,-0.005,0.0,0.015,0.03,0.065,0.095,0.095,0.09,0.075,0.08,0.125,0.14,0.135,0.145,0.15,0.175,0.2,0.2,0.175,0.185,0.175,0.195,0.225,0.235,0.24,0.235,0.25,0.26,0.27,0.275,0.275,0.26,0.25,0.255,0.27,0.265,0.265,0.25,0.245,0.24,0.265,0.255,0.265,0.225,0.23,0.24,0.25,0.23,0.22,0.215,0.205,0.22,0.235,0.23,0.22,0.215
0.0,217.0,0.265,0.265,0.25,0.245,0.24,0.265,0.255,0.265,0.225,0.23,0.24,0.25,0.23,0.22,0.215,0.205,0.22,0.235,0.23,0.22,0.215,0.205,0.195,0.21,0.23,0.225,0.215,0.205,0.215,0.23,0.235,0.225,0.225,0.22,0.24,0.265,0.275,0.255,0.24,0.225,0.25,0.26,0.255,0.255,0.245,0.255,0.26,0.27,0.26,0.255,0.24,0.24,0.24,0.255,0.245,0.235,0.225,0.225,0.235,0.245,0.25,0.235,0.215,0.195,0.215,0.22,0.235,0.21,0.2,0.175,0.195,0.22,0.21,0.22,0.22,0.215,0.225,0.245,0.245,0.25,0.24,0.23,0.235,0.25,0.255,0.24,0.245,0.235,0.245,0.26,0.26,0.245,0.23,0.25,0.25,0.265,0.26,0.26,0.245,0.265,0.275,0.315,0.345,0.385,0.435,0.475,0.565,0.675,0.855,1.065,1.245,1.385,1.485,1.555,1.54,1.47,1.33,1.175,1.0,0.725,0.415,0.105,-0.075,-0.105,-0.035,0.045,0.1,0.12,0.1,0.11,0.13,0.15,0.145,0.13,0.11,0.09,0.09,0.105,0.1,0.09,0.075,0.07,0.08,0.08,0.09,0.07,0.06,0.045,0.045,0.055,0.045,0.035,0.02,0.01,0.01,0.025,0.015,0.005,-0.035,-0.04,-0.045,-0.035,-0.03,-0.035,-0.045,-0.05,-0.06,-0.04,-0.045,-0.05,-0.04,-0.05,-0.04,-0.045,-0.055,-0.065,-0.085,-0.095,-0.09,-0.09,-0.095,-0.125,-0.145,-0.16,-0.175,-0.17,-0.175,-0.205,-0.23,-0.25,-0.255,-0.27,-0.295,-0.345,-0.38,-0.41,-0.395,-0.425,-0.46,-0.49,-0.53,-0.555,-0.58,-0.61,-0.63,-0.655,-0.685,-0.72,-0.71,-0.7,-0.71,-0.72,-0.72,-0.715,-0.695,-0.66,-0.64,-0.645,-0.635,-0.62,-0.575,-0.545,-0.5,-0.475,-0.455,-0.4,-0.335,-0.29,-0.25,-0.23,-0.225,-0.175,-0.145,-0.1,-0.065,-0.05,-0.035,-0.02,0.005,0.05,0.07,0.065,0.065,0.08,0.08,0.12,0.125,0.11,0.1,0.085,0.11,0.13,0.125,0.125,0.12,0.12,0.14,0.175,0.18,0.18,0.175,0.185,0.2,0.215,0.235,0.23,0.225,0.235,0.24,0.245,0.25,0.24,0.225,0.23,0.24,0.255,0.245,0.24,0.24,0.205,0.235,0.23,0.24,0.245,0.22,0.24,0.24,0.25,0.265,0.26,0.235,0.25,0.255,0.27,0.265,0.255,0.235,0.215,0.23,0.225
1.0,217.0,-0.785,-0.755,-0.73,-0.71,-0.725,-0.705,-0.65,-0.605,-0.56,-0.55,-0.535,-0.52,-0.485,-0.435,-0.395,-0.37,-0.355,-0.32,-0.285,-0.24,-0.23,-0.21,-0.225,-0.215,-0.18,-0.15,-0.14,-0.125,-0.13,-0.11,-0.09,-0.055,-0.045,-0.055,-0.065,-0.05,-0.055,-0.04,-0.05,-0.045,-0.055,-0.045,-0.035,-0.015,-0.01,-0.01,-0.015,-0.01,0.025,0.025,0.015,0.02,0.01,0.02,0.02,0.03,0.02,0.015,0.005,0.005,0.02,0.035,0.045,0.045,0.02,0.015,0.02,0.04,0.04,0.035,0.03,0.045,0.05,0.07,0.065,0.06,0.035,0.045,0.065,0.095,0.11,0.11,0.125,0.145,0.185,0.23,0.265,0.335,0.405,0.48,0.56,0.65,0.715,0.755,0.795,0.835,0.905,0.985,1.07,1.125,1.18,1.23,1.305,1.41,1.52,1.625,1.685,1.74,1.79,1.875,1.955,1.99,2.01,2.01,2.005,1.98,1.9,1.745,1.465,1.1,0.715,0.415,0.215,0.095,0.04,-0.025,-0.105,-0.165,-0.235,-0.295,-0.35,-0.365,-0.39,-0.385,-0.39,-0.435,-0.475,-0.5,-0.5,-0.49,-0.51,-0.54,-0.555,-0.575,-0.57,-0.56,-0.58,-0.595,-0.64,-0.66,-0.675,-0.66,-0.67,-0.685,-0.715,-0.725,-0.725,-0.725,-0.74,-0.765,-0.805,-0.83,-0.85,-0.855,-0.875,-0.91,-0.96,-0.975,-0.995,-1.0,-1.04,-1.07,-1.11,-1.15,-1.165,-1.185,-1.22,-1.27,-1.315,-1.35,-1.37,-1.37,-1.405,-1.435,-1.475,-1.505,-1.525,-1.545,-1.565,-1.62,-1.65,-1.695,-1.685,-1.685,-1.69,-1.72,-1.735,-1.74,-1.725,-1.715,-1.725,-1.745,-1.75,-1.735,-1.71,-1.695,-1.67,-1.67,-1.65,-1.62,-1.575,-1.54,-1.51,-1.49,-1.445,-1.42,-1.355,-1.305,-1.26,-1.23,-1.2,-1.16,-1.12,-1.06,-1.005,-0.965,-0.92,-0.88,-0.835,-0.785,-0.74,-0.7,-0.675,-0.655,-0.615,-0.57,-0.57,-0.52,-0.515,-0.505,-0.47,-0.45,-0.42,-0.415,-0.415,-0.375,-0.345,-0.32,-0.3,-0.3,-0.3,-0.295,-0.26,-0.24,-0.22,-0.22,-0.22,-0.215,-0.205,-0.2,-0.205,-0.23,-0.215,-0.195,-0.165,-0.13,-0.135,-0.12,-0.12,-0.105,-0.105,-0.085,-0.08,-0.095,-0.08,-0.075,-0.07,-0.06,-0.055,-0.06,-0.085,-0.06,-0.06,-0.04,-0.05,-0.065,-0.075,-0.07,-0.07,-0.04,-0.03,-0.06,-0.035,-0.045,-0.03,-0.035,-0.04,-0.06,-0.07,-0.065
1.0,217.0,0.66,0.66,0.64,0.6,0.55,0.535,0.485,0.47,0.41,0.37,0.325,0.28,0.26,0.235,0.205,0.15,0.11,0.065,0.055,0.03,0.0,-0.05,-0.085,-0.11,-0.125,-0.135,-0.17,-0.205,-0.23,-0.235,-0.25,-0.24,-0.255,-0.275,-0.29,-0.31,-0.285,-0.28,-0.29,-0.31,-0.315,-0.335,-0.33,-0.315,-0.32,-0.35,-0.355,-0.345,-0.335,-0.34,-0.335,-0.365,-0.38,-0.4,-0.4,-0.375,-0.39,-0.375,-0.38,-0.38,-0.375,-0.365,-0.365,-0.365,-0.385,-0.38,-0.355,-0.36,-0.365,-0.385,-0.385,-0.41,-0.395,-0.375,-0.365,-0.385,-0.38,-0.37,-0.355,-0.345,-0.33,-0.315,-0.325,-0.295,-0.275,-0.23,-0.2,-0.15,-0.09,-0.01,0.1,0.22,0.3,0.375,0.435,0.48,0.545,0.605,0.675,0.74,0.825,0.905,0.99,1.1,1.24,1.35,1.47,1.555,1.63,1.695,1.775,1.83,1.885,1.905,1.91,1.855,1.75,1.545,1.2,0.735,0.3,-0.02,-0.215,-0.315,-0.39,-0.455,-0.53,-0.585,-0.635,-0.69,-0.75,-0.775,-0.79,-0.77,-0.785,-0.83,-0.86,-0.875,-0.87,-0.865,-0.885,-0.905,-0.945,-0.95,-0.945,-0.92,-0.955,-0.99,-1.02,-1.035,-1.04,-1.035,-1.06,-1.075,-1.11,-1.12,-1.125,-1.135,-1.16,-1.185,-1.23,-1.24,-1.255,-1.265,-1.29,-1.32,-1.365,-1.405,-1.41,-1.43,-1.465,-1.51,-1.545,-1.575,-1.59,-1.605,-1.635,-1.68,-1.71,-1.745,-1.755,-1.775,-1.805,-1.85,-1.875,-1.895,-1.89,-1.895,-1.92,-1.945,-1.97,-1.985,-1.98,-1.975,-1.97,-1.975,-1.995,-1.98,-1.965,-1.95,-1.93,-1.925,-1.91,-1.885,-1.855,-1.82,-1.79,-1.775,-1.76,-1.725,-1.67,-1.625,-1.59,-1.57,-1.54,-1.495,-1.445,-1.39,-1.375,-1.33,-1.305,-1.26,-1.21,-1.165,-1.135,-1.1,-1.075,-1.04,-1.01,-0.96,-0.93,-0.91,-0.88,-0.845,-0.8,-0.75,-0.73,-0.71,-0.7,-0.685,-0.655,-0.62,-0.6,-0.585,-0.56,-0.54,-0.5,-0.48,-0.46,-0.455,-0.43,-0.415,-0.39,-0.355,-0.335,-0.345,-0.34,-0.325,-0.29,-0.265,-0.255,-0.265,-0.27,-0.255,-0.235,-0.205,-0.21,-0.22,-0.21,-0.215,-0.185,-0.16,-0.16,-0.155,-0.185,-0.165,-0.165,-0.145,-0.14,-0.14,-0.16,-0.16,-0.155,-0.14,-0.16,-0.155,-0.17,-0.16,-0.155,-0.125,-0.12,-0.125,-0.13,-0.135,-0.11,-0.095,-0.1,-0.1,-0.115,-0.11
1.0,217.0,0.03,0.03,0.025,0.01,-0.01,-0.035,-0.055,-0.07,-0.075,-0.09,-0.095,-0.12,-0.16,-0.17,-0.17,-0.155,-0.17,-0.19,-0.21,-0.22,-0.21,-0.21,-0.2,-0.24,-0.25,-0.255,-0.24,-0.225,-0.24,-0.265,-0.28,-0.275,-0.27,-0.25,-0.25,-0.27,-0.29,-0.275,-0.27,-0.26,-0.27,-0.295,-0.295,-0.3,-0.29,-0.295,-0.32,-0.345,-0.36,-0.35,-0.34,-0.345,-0.335,-0.355,-0.35,-0.34,-0.315,-0.3,-0.32,-0.335,-0.365,-0.345,-0.34,-0.335,-0.335,-0.345,-0.36,-0.35,-0.33,-0.325,-0.325,-0.345,-0.34,-0.35,-0.32,-0.3,-0.295,-0.295,-0.275,-0.235,-0.18,-0.12,-0.05,-0.01,0.055,0.135,0.215,0.28,0.345,0.37,0.405,0.455,0.49,0.555,0.62,0.675,0.71,0.765,0.82,0.88,0.94,1.025,1.12,1.23,1.32,1.395,1.44,1.48,1.525,1.6,1.67,1.715,1.73,1.7,1.66,1.63,1.57,1.425,1.165,0.78,0.355,0.01,-0.23,-0.365,-0.43,-0.505,-0.575,-0.645,-0.705,-0.745,-0.79,-0.845,-0.895,-0.93,-0.925,-0.925,-0.945,-0.98,-1.01,-1.01,-1.01,-1.005,-1.02,-1.055,-1.085,-1.095,-1.095,-1.1,-1.13,-1.15,-1.165,-1.195,-1.185,-1.185,-1.185,-1.205,-1.22,-1.235,-1.24,-1.235,-1.26,-1.29,-1.315,-1.32,-1.33,-1.32,-1.335,-1.38,-1.405,-1.425,-1.43,-1.425,-1.455,-1.495,-1.53,-1.545,-1.555,-1.575,-1.605,-1.655,-1.675,-1.7,-1.71,-1.73,-1.765,-1.805,-1.835,-1.87,-1.88,-1.89,-1.93,-1.98,-1.995,-2.03,-2.04,-2.045,-2.08,-2.115,-2.155,-2.175,-2.185,-2.195,-2.215,-2.255,-2.28,-2.27,-2.27,-2.27,-2.28,-2.295,-2.32,-2.315,-2.29,-2.275,-2.275,-2.29,-2.29,-2.285,-2.25,-2.23,-2.22,-2.215,-2.21,-2.18,-2.16,-2.125,-2.1,-2.075,-2.065,-2.04,-2.005,-1.95,-1.935,-1.915,-1.9,-1.865,-1.815,-1.775,-1.735,-1.72,-1.715,-1.675,-1.625,-1.6,-1.575,-1.555,-1.545,-1.525,-1.47,-1.43,-1.4,-1.385,-1.365,-1.34,-1.31,-1.275,-1.265,-1.24,-1.225,-1.205,-1.17,-1.15,-1.115,-1.11,-1.105,-1.07,-1.05,-1.015,-1.005,-1.0,-1.0,-0.98,-0.935,-0.89,-0.875,-0.865,-0.87,-0.87,-0.835,-0.805,-0.8,-0.805,-0.805,-0.79,-0.77,-0.75,-0.73,-0.735,-0.74,-0.73,-0.725,-0.705,-0.71,-0.71,-0.715,-0.71,-0.7,-0.695,-0.715,-0.72
0.0,217.0,-0.405,-0.395,-0.415,-0.415,-0.395,-0.385,-0.38,-0.405,-0.42,-0.4,-0.4,-0.39,-0.4,-0.405,-0.41,-0.41,-0.4,-0.39,-0.395,-0.4,-0.405,-0.42,-0.405,-0.405,-0.41,-0.425,-0.435,-0.44,-0.43,-0.42,-0.43,-0.445,-0.46,-0.46,-0.45,-0.425,-0.44,-0.46,-0.465,-0.48,-0.455,-0.44,-0.44,-0.46,-0.465,-0.475,-0.46,-0.455,-0.46,-0.47,-0.485,-0.475,-0.45,-0.435,-0.43,-0.44,-0.45,-0.445,-0.445,-0.435,-0.43,-0.45,-0.455,-0.465,-0.44,-0.43,-0.43,-0.44,-0.445,-0.435,-0.435,-0.42,-0.425,-0.43,-0.455,-0.46,-0.44,-0.425,-0.42,-0.455,-0.45,-0.45,-0.445,-0.425,-0.435,-0.46,-0.47,-0.465,-0.455,-0.46,-0.44,-0.45,-0.47,-0.465,-0.455,-0.45,-0.45,-0.46,-0.45,-0.445,-0.4,-0.36,-0.34,-0.28,-0.25,-0.175,-0.065,0.1,0.325,0.54,0.725,0.875,0.975,1.015,0.96,0.845,0.67,0.48,0.25,-0.045,-0.36,-0.605,-0.715,-0.695,-0.635,-0.58,-0.57,-0.565,-0.56,-0.55,-0.535,-0.545,-0.55,-0.56,-0.57,-0.57,-0.555,-0.55,-0.565,-0.57,-0.58,-0.59,-0.58,-0.57,-0.585,-0.595,-0.615,-0.615,-0.595,-0.58,-0.595,-0.61,-0.615,-0.6,-0.6,-0.6,-0.61,-0.635,-0.65,-0.655,-0.64,-0.63,-0.63,-0.645,-0.66,-0.66,-0.645,-0.64,-0.655,-0.665,-0.69,-0.65,-0.665,-0.645,-0.665,-0.68,-0.69,-0.69,-0.69,-0.69,-0.69,-0.71,-0.73,-0.72,-0.725,-0.71,-0.74,-0.735,-0.75,-0.765,-0.77,-0.78,-0.805,-0.825,-0.845,-0.86,-0.86,-0.875,-0.89,-0.91,-0.95,-0.965,-0.965,-0.975,-1.015,-1.055,-1.055,-1.075,-1.085,-1.09,-1.1,-1.12,-1.155,-1.145,-1.14,-1.14,-1.14,-1.155,-1.18,-1.155,-1.125,-1.09,-1.08,-1.1,-1.065,-1.045,-1.01,-0.975,-0.95,-0.915,-0.89,-0.855,-0.8,-0.755,-0.73,-0.705,-0.69,-0.645,-0.62,-0.59,-0.595,-0.58,-0.58,-0.555,-0.525,-0.5,-0.49,-0.475,-0.465,-0.455,-0.42,-0.4,-0.405,-0.4,-0.395,-0.375,-0.365,-0.36,-0.36,-0.355,-0.37,-0.345,-0.32,-0.305,-0.31,-0.33,-0.345,-0.315,-0.305,-0.3,-0.295,-0.3,-0.31,-0.305,-0.295,-0.275,-0.265,-0.295,-0.285,-0.285,-0.265,-0.245,-0.24,-0.26,-0.265,-0.255,-0.255,-0.245,-0.25,-0.265,-0.275,-0.265,-0.235,-0.215,-0.22,-0.225,-0.235,-0.225,-0.2,-0.2
0.0,217.0,0.02,0.04,0.05,0.04,0.04,0.025,0.035,0.04,0.05,0.04,0.035,0.015,0.03,0.05,0.035,0.03,0.025,0.01,0.0,0.02,0.035,0.025,0.0,-0.015,-0.02,0.015,0.02,0.0,0.0,-0.01,0.0,0.03,0.03,0.025,0.025,0.005,0.0,0.015,0.025,0.02,0.01,-0.005,-0.005,0.005,0.03,0.03,0.015,0.01,0.015,0.045,0.03,0.035,0.01,0.01,0.01,0.015,0.02,0.0,-0.01,-0.015,-0.005,0.01,0.03,0.03,0.015,0.005,0.005,0.01,0.015,0.0,-0.025,-0.03,-0.035,-0.02,-0.01,-0.015,-0.02,-0.03,-0.03,-0.005,-0.005,0.01,-0.005,-0.01,-0.025,-0.005,0.01,0.01,-0.02,0.0,-0.01,0.01,0.03,0.03,0.03,0.01,0.015,0.03,0.045,0.05,0.04,0.065,0.1,0.15,0.21,0.255,0.33,0.45,0.62,0.845,1.025,1.185,1.29,1.345,1.335,1.265,1.155,0.97,0.735,0.445,0.115,-0.17,-0.335,-0.385,-0.35,-0.29,-0.24,-0.16,-0.12,-0.105,-0.125,-0.13,-0.125,-0.12,-0.105,-0.115,-0.135,-0.15,-0.14,-0.125,-0.12,-0.145,-0.155,-0.165,-0.165,-0.15,-0.14,-0.16,-0.17,-0.18,-0.19,-0.165,-0.17,-0.175,-0.19,-0.19,-0.195,-0.19,-0.175,-0.19,-0.2,-0.225,-0.22,-0.215,-0.2,-0.215,-0.23,-0.245,-0.25,-0.225,-0.225,-0.245,-0.255,-0.26,-0.245,-0.24,-0.23,-0.24,-0.255,-0.265,-0.265,-0.255,-0.24,-0.255,-0.28,-0.295,-0.295,-0.295,-0.295,-0.31,-0.335,-0.335,-0.355,-0.365,-0.35,-0.375,-0.415,-0.445,-0.45,-0.455,-0.475,-0.495,-0.53,-0.56,-0.58,-0.585,-0.605,-0.64,-0.66,-0.7,-0.715,-0.71,-0.715,-0.73,-0.745,-0.76,-0.78,-0.78,-0.765,-0.78,-0.8,-0.795,-0.775,-0.74,-0.715,-0.69,-0.68,-0.66,-0.64,-0.595,-0.555,-0.53,-0.51,-0.5,-0.46,-0.425,-0.395,-0.36,-0.345,-0.325,-0.3,-0.27,-0.235,-0.23,-0.215,-0.205,-0.185,-0.16,-0.135,-0.13,-0.135,-0.12,-0.115,-0.085,-0.075,-0.065,-0.07,-0.06,-0.045,-0.03,-0.015,-0.01,-0.015,-0.04,-0.025,-0.005,-0.005,-0.005,-0.015,-0.01,0.005,0.015,0.005,0.01,-0.005,-0.015,0.0,0.02,0.035,0.04,0.01,0.015,0.03,0.045,0.04,0.06,0.045,0.035,0.055,0.075,0.07,0.07,0.055,0.04,0.05,0.06,0.065,0.05,0.05,0.06
0.0,217.0,0.085,0.065,0.04,0.035,0.035,0.055,0.065,0.065,0.055,0.055,0.065,0.07,0.075,0.075,0.055,0.045,0.045,0.04,0.05,0.045,0.02,0.015,0.03,0.05,0.06,0.075,0.05,0.045,0.055,0.075,0.075,0.085,0.06,0.065,0.065,0.075,0.09,0.09,0.085,0.09,0.08,0.105,0.115,0.11,0.095,0.07,0.085,0.115,0.11,0.105,0.085,0.095,0.11,0.11,0.115,0.115,0.105,0.105,0.095,0.115,0.125,0.105,0.095,0.075,0.085,0.105,0.1,0.08,0.075,0.04,0.04,0.045,0.05,0.045,0.015,0.015,0.035,0.045,0.055,0.055,0.045,0.03,0.04,0.07,0.07,0.065,0.07,0.05,0.05,0.085,0.085,0.08,0.065,0.075,0.09,0.09,0.115,0.115,0.12,0.125,0.16,0.195,0.255,0.295,0.335,0.395,0.51,0.685,0.89,1.095,1.25,1.33,1.435,1.465,1.435,1.32,1.15,0.95,0.685,0.39,0.09,-0.13,-0.23,-0.23,-0.165,-0.105,-0.045,-0.015,-0.03,-0.045,-0.035,-0.02,-0.01,-0.03,-0.055,-0.06,-0.06,-0.045,-0.04,-0.04,-0.05,-0.065,-0.055,-0.045,-0.055,-0.065,-0.065,-0.075,-0.07,-0.05,-0.055,-0.08,-0.08,-0.08,-0.085,-0.075,-0.065,-0.07,-0.085,-0.1,-0.1,-0.09,-0.1,-0.11,-0.125,-0.14,-0.14,-0.125,-0.125,-0.14,-0.155,-0.18,-0.18,-0.175,-0.16,-0.175,-0.195,-0.205,-0.21,-0.205,-0.205,-0.22,-0.24,-0.25,-0.25,-0.26,-0.26,-0.275,-0.29,-0.325,-0.315,-0.31,-0.335,-0.345,-0.38,-0.425,-0.43,-0.435,-0.44,-0.485,-0.515,-0.555,-0.57,-0.585,-0.61,-0.625,-0.65,-0.685,-0.695,-0.68,-0.68,-0.705,-0.725,-0.745,-0.745,-0.735,-0.73,-0.73,-0.735,-0.715,-0.695,-0.64,-0.615,-0.605,-0.575,-0.56,-0.525,-0.48,-0.445,-0.425,-0.4,-0.365,-0.325,-0.275,-0.245,-0.225,-0.215,-0.22,-0.18,-0.14,-0.1,-0.1,-0.09,-0.09,-0.075,-0.035,-0.02,-0.01,-0.015,-0.015,-0.01,0.02,0.04,0.04,0.025,0.025,0.05,0.05,0.065,0.08,0.08,0.055,0.07,0.095,0.105,0.095,0.07,0.07,0.08,0.105,0.1,0.1,0.105,0.125,0.13,0.135,0.15,0.145,0.13,0.145,0.145,0.16,0.16,0.165,0.155,0.14,0.155,0.175,0.175,0.165,0.15,0.145,0.16,0.17,0.175,0.17,0.155,0.15,0.14,0.15
1.0,217.0,-0.615,-0.615,-0.62,-0.645,-0.69,-0.7,-0.695,-0.71,-0.72,-0.76,-0.78,-0.815,-0.81,-0.82,-0.855,-0.885,-0.89,-0.925,-0.92,-0.9,-0.915,-0.955,-0.96,-0.965,-0.96,-0.945,-0.955,-0.965,-0.96,-0.95,-0.92,-0.885,-0.865,-0.855,-0.845,-0.825,-0.78,-0.745,-0.715,-0.705,-0.675,-0.645,-0.595,-0.545,-0.54,-0.51,-0.5,-0.48,-0.46,-0.43,-0.425,-0.435,-0.435,-0.43,-0.4,-0.37,-0.38,-0.37,-0.37,-0.375,-0.365,-0.34,-0.335,-0.34,-0.355,-0.345,-0.34,-0.315,-0.32,-0.33,-0.35,-0.35,-0.335,-0.325,-0.32,-0.31,-0.32,-0.325,-0.285,-0.275,-0.245,-0.235,-0.245,-0.215,-0.17,-0.11,-0.055,-0.01,0.055,0.145,0.27,0.38,0.465,0.545,0.61,0.68,0.76,0.845,0.925,1.005,1.08,1.145,1.235,1.335,1.43,1.52,1.62,1.7,1.77,1.82,1.85,1.88,1.92,1.955,1.965,1.96,1.865,1.71,1.44,1.065,0.655,0.305,0.05,-0.125,-0.235,-0.29,-0.325,-0.355,-0.425,-0.47,-0.51,-0.555,-0.56,-0.59,-0.6,-0.63,-0.645,-0.65,-0.665,-0.66,-0.67,-0.695,-0.715,-0.72,-0.72,-0.705,-0.72,-0.74,-0.76,-0.755,-0.755,-0.76,-0.77,-0.78,-0.81,-0.805,-0.8,-0.79,-0.805,-0.83,-0.85,-0.87,-0.885,-0.88,-0.88,-0.905,-0.945,-0.965,-0.975,-0.97,-1.005,-1.035,-1.065,-1.095,-1.11,-1.115,-1.14,-1.17,-1.21,-1.235,-1.24,-1.255,-1.28,-1.325,-1.365,-1.395,-1.405,-1.415,-1.465,-1.49,-1.51,-1.535,-1.545,-1.545,-1.57,-1.595,-1.63,-1.645,-1.645,-1.645,-1.645,-1.665,-1.68,-1.67,-1.66,-1.635,-1.645,-1.63,-1.63,-1.615,-1.595,-1.57,-1.55,-1.545,-1.535,-1.515,-1.48,-1.44,-1.42,-1.405,-1.385,-1.34,-1.305,-1.26,-1.22,-1.21,-1.185,-1.14,-1.095,-1.055,-1.03,-1.005,-0.97,-0.945,-0.905,-0.87,-0.84,-0.825,-0.79,-0.76,-0.725,-0.68,-0.65,-0.655,-0.63,-0.62,-0.575,-0.535,-0.525,-0.505,-0.5,-0.485,-0.45,-0.435,-0.415,-0.425,-0.425,-0.425,-0.405,-0.38,-0.37,-0.37,-0.375,-0.365,-0.34,-0.305,-0.29,-0.285,-0.29,-0.275,-0.23,-0.205,-0.215,-0.235,-0.215,-0.2,-0.185,-0.175,-0.18,-0.19,-0.185,-0.185,-0.16,-0.15,-0.155,-0.155,-0.165,-0.15,-0.135,-0.135,-0.135,-0.14,-0.15,-0.15,-0.13,-0.13,-0.12,-0.14,-0.15,-0.15
0.0,217.0,-0.12,-0.105,-0.095,-0.08,-0.09,-0.085,-0.11,-0.1,-0.09,-0.08,-0.09,-0.105,-0.125,-0.13,-0.12,-0.115,-0.11,-0.11,-0.125,-0.115,-0.105,-0.08,-0.085,-0.09,-0.11,-0.1,-0.105,-0.115,-0.115,-0.14,-0.15,-0.145,-0.135,-0.11,-0.09,-0.12,-0.135,-0.14,-0.115,-0.075,-0.07,-0.075,-0.1,-0.1,-0.08,-0.08,-0.09,-0.09,-0.1,-0.09,-0.075,-0.065,-0.075,-0.09,-0.095,-0.09,-0.105,-0.085,-0.095,-0.115,-0.125,-0.12,-0.115,-0.09,-0.1,-0.1,-0.105,-0.105,-0.095,-0.08,-0.08,-0.1,-0.12,-0.125,-0.11,-0.1,-0.105,-0.11,-0.125,-0.125,-0.115,-0.105,-0.11,-0.14,-0.155,-0.15,-0.13,-0.105,-0.11,-0.105,-0.11,-0.13,-0.095,-0.085,-0.07,-0.065,-0.085,-0.085,-0.07,-0.05,-0.045,-0.035,-0.005,0.02,0.085,0.16,0.235,0.365,0.54,0.77,0.995,1.155,1.24,1.26,1.21,1.095,0.965,0.8,0.535,0.185,-0.17,-0.42,-0.48,-0.43,-0.36,-0.31,-0.265,-0.26,-0.23,-0.215,-0.225,-0.245,-0.255,-0.275,-0.255,-0.24,-0.24,-0.255,-0.255,-0.24,-0.23,-0.215,-0.21,-0.25,-0.245,-0.245,-0.245,-0.23,-0.24,-0.25,-0.25,-0.245,-0.25,-0.23,-0.235,-0.255,-0.275,-0.265,-0.25,-0.25,-0.26,-0.285,-0.3,-0.295,-0.29,-0.28,-0.28,-0.29,-0.305,-0.31,-0.31,-0.3,-0.3,-0.33,-0.35,-0.35,-0.35,-0.345,-0.345,-0.365,-0.39,-0.4,-0.4,-0.39,-0.4,-0.43,-0.43,-0.44,-0.435,-0.43,-0.46,-0.48,-0.5,-0.52,-0.52,-0.52,-0.555,-0.59,-0.605,-0.625,-0.635,-0.645,-0.675,-0.705,-0.745,-0.765,-0.755,-0.77,-0.785,-0.82,-0.84,-0.85,-0.85,-0.84,-0.845,-0.85,-0.855,-0.86,-0.84,-0.805,-0.8,-0.8,-0.785,-0.755,-0.73,-0.68,-0.65,-0.645,-0.61,-0.58,-0.535,-0.5,-0.475,-0.46,-0.46,-0.43,-0.385,-0.345,-0.325,-0.305,-0.305,-0.29,-0.26,-0.215,-0.2,-0.2,-0.2,-0.2,-0.17,-0.15,-0.135,-0.145,-0.15,-0.13,-0.12,-0.095,-0.085,-0.09,-0.095,-0.085,-0.08,-0.05,-0.06,-0.06,-0.075,-0.07,-0.065,-0.04,-0.03,-0.055,-0.07,-0.065,-0.045,-0.025,-0.04,-0.05,-0.065,-0.06,-0.045,-0.045,-0.035,-0.04,-0.05,-0.06,-0.04,-0.05,-0.045,-0.065,-0.09,-0.07,-0.05,-0.035,-0.045,-0.05,-0.06,-0.055,-0.04,-0.015,-0.01,-0.015
