0.0,231.0,-0.33,-0.335,-0.335,-0.345,-0.335,-0.335,-0.34,-0.345,-0.335,-0.325,-0.315,-0.33,-0.33,-0.32,-0.33,-0.33,-0.33,-0.33,-0.325,-0.31,-0.31,-0.305,-0.3,-0.32,-0.32,-0.325,-0.33,-0.33,-0.32,-0.32,-0.31,-0.31,-0.3,-0.305,-0.295,-0.31,-0.31,-0.315,-0.325,-0.305,-0.29,-0.28,-0.265,-0.25,-0.255,-0.245,-0.24,-0.23,-0.235,-0.24,-0.225,-0.22,-0.19,-0.165,-0.14,-0.11,-0.11,-0.1,-0.105,-0.115,-0.13,-0.15,-0.17,-0.17,-0.185,-0.195,-0.205,-0.195,-0.21,-0.22,-0.245,-0.27,-0.29,-0.305,-0.32,-0.32,-0.34,-0.32,-0.335,-0.32,-0.31,-0.325,-0.32,-0.33,-0.35,-0.34,-0.35,-0.345,-0.34,-0.34,-0.335,-0.33,-0.32,-0.32,-0.32,-0.33,-0.34,-0.345,-0.345,-0.36,-0.385,-0.425,-0.49,-0.55,-0.58,-0.52,-0.37,-0.1,0.24,0.655,1.05,1.38,1.575,1.565,1.29,0.86,0.405,0.035,-0.185,-0.26,-0.255,-0.22,-0.175,-0.175,-0.195,-0.24,-0.285,-0.32,-0.345,-0.35,-0.355,-0.36,-0.36,-0.36,-0.385,-0.385,-0.4,-0.39,-0.4,-0.395,-0.39,-0.39,-0.39,-0.395,-0.41,-0.4,-0.415,-0.41,-0.4,-0.4,-0.405,-0.395,-0.38,-0.39,-0.395,-0.395,-0.405,-0.41,-0.41,-0.405,-0.425,-0.41,-0.39,-0.39,-0.385,-0.375,-0.38,-0.38,-0.38,-0.39,-0.395,-0.385,-0.395,-0.385,-0.375,-0.365,-0.355,-0.355,-0.355,-0.365,-0.365,-0.37,-0.38,-0.37,-0.375,-0.36,-0.35,-0.34,-0.33,-0.33,-0.315,-0.325,-0.32,-0.32,-0.31,-0.315,-0.315,-0.31,-0.29,-0.295,-0.28,-0.28,-0.28,-0.275,-0.28,-0.275,-0.285,-0.285,-0.29,-0.27,-0.27,-0.26,-0.26,-0.26,-0.26,-0.27,-0.26,-0.275,-0.255,-0.245,-0.235,-0.22,-0.215,-0.19,-0.165,-0.16,-0.155,-0.14,-0.13,-0.125,-0.14,-0.13,-0.12,-0.1,-0.07,-0.055,-0.02,-0.01,0.015,0.035,0.05,0.055,0.04,0.045,0.035,0.06,0.085,0.105,0.12,0.12,0.11,0.095,0.075,0.075,0.065,0.05,0.04,0.05,0.055,0.045,0.05,0.04,0.03,0.015,0.0,-0.015,-0.04,-0.06,-0.065,-0.075,-0.095,-0.095,-0.1,-0.11,-0.13,-0.145,-0.155,-0.175,-0.205,-0.19,-0.19,-0.185,-0.19,-0.185,-0.175,-0.185,-0.2,-0.225,-0.24,-0.255,-0.265,-0.255,-0.255,-0.235,-0.23,-0.22,-0.235,-0.235,-0.25,-0.25
0.0,231.0,-0.37,-0.37,-0.385,-0.395,-0.39,-0.38,-0.37,-0.365,-0.37,-0.355,-0.36,-0.35,-0.36,-0.375,-0.375,-0.39,-0.385,-0.38,-0.365,-0.365,-0.36,-0.355,-0.35,-0.355,-0.355,-0.375,-0.375,-0.39,-0.38,-0.37,-0.365,-0.355,-0.345,-0.34,-0.335,-0.345,-0.35,-0.345,-0.35,-0.345,-0.34,-0.325,-0.305,-0.3,-0.28,-0.27,-0.285,-0.28,-0.275,-0.26,-0.255,-0.235,-0.215,-0.2,-0.165,-0.15,-0.145,-0.15,-0.16,-0.18,-0.19,-0.195,-0.22,-0.22,-0.23,-0.245,-0.24,-0.275,-0.265,-0.285,-0.315,-0.325,-0.35,-0.36,-0.375,-0.38,-0.39,-0.385,-0.37,-0.37,-0.36,-0.37,-0.365,-0.385,-0.385,-0.39,-0.395,-0.405,-0.39,-0.385,-0.375,-0.38,-0.375,-0.37,-0.365,-0.38,-0.39,-0.39,-0.405,-0.435,-0.475,-0.53,-0.58,-0.63,-0.61,-0.515,-0.315,-0.02,0.35,0.73,1.095,1.38,1.535,1.505,1.26,0.85,0.41,0.035,-0.19,-0.27,-0.27,-0.255,-0.235,-0.225,-0.24,-0.27,-0.3,-0.345,-0.37,-0.385,-0.385,-0.38,-0.385,-0.385,-0.405,-0.42,-0.43,-0.425,-0.435,-0.425,-0.44,-0.43,-0.435,-0.435,-0.435,-0.45,-0.45,-0.455,-0.455,-0.46,-0.46,-0.445,-0.44,-0.435,-0.44,-0.44,-0.44,-0.445,-0.445,-0.46,-0.44,-0.45,-0.43,-0.43,-0.43,-0.42,-0.425,-0.41,-0.425,-0.425,-0.435,-0.43,-0.435,-0.425,-0.42,-0.41,-0.405,-0.405,-0.395,-0.4,-0.405,-0.405,-0.4,-0.415,-0.405,-0.4,-0.39,-0.38,-0.37,-0.36,-0.365,-0.38,-0.375,-0.375,-0.37,-0.365,-0.365,-0.35,-0.35,-0.35,-0.335,-0.33,-0.335,-0.33,-0.335,-0.34,-0.34,-0.325,-0.33,-0.33,-0.325,-0.315,-0.305,-0.305,-0.285,-0.29,-0.295,-0.295,-0.3,-0.3,-0.305,-0.285,-0.275,-0.265,-0.25,-0.24,-0.24,-0.24,-0.25,-0.24,-0.225,-0.225,-0.2,-0.195,-0.17,-0.15,-0.135,-0.13,-0.12,-0.11,-0.1,-0.09,-0.085,-0.065,-0.045,-0.03,-0.005,0.005,0.02,0.03,0.03,0.03,0.02,0.01,0.02,0.03,0.03,0.04,0.035,0.03,0.04,0.015,0.0,-0.01,-0.015,-0.045,-0.055,-0.065,-0.085,-0.095,-0.1,-0.11,-0.11,-0.13,-0.125,-0.14,-0.16,-0.17,-0.2,-0.215,-0.225,-0.235,-0.235,-0.235,-0.23,-0.245,-0.235,-0.245,-0.255,-0.27,-0.285,-0.3,-0.295,-0.295,-0.28,-0.28,-0.27,-0.255,-0.27,-0.275
0.0,231.0,-0.355,-0.345,-0.345,-0.35,-0.355,-0.35,-0.35,-0.37,-0.38,-0.38,-0.375,-0.375,-0.355,-0.35,-0.34,-0.33,-0.345,-0.355,-0.36,-0.365,-0.355,-0.36,-0.355,-0.355,-0.355,-0.35,-0.355,-0.355,-0.35,-0.35,-0.35,-0.35,-0.36,-0.35,-0.34,-0.335,-0.31,-0.325,-0.315,-0.32,-0.335,-0.34,-0.355,-0.345,-0.33,-0.31,-0.3,-0.285,-0.28,-0.27,-0.26,-0.26,-0.26,-0.245,-0.24,-0.225,-0.2,-0.17,-0.155,-0.14,-0.125,-0.13,-0.145,-0.16,-0.195,-0.205,-0.215,-0.235,-0.24,-0.26,-0.26,-0.27,-0.285,-0.3,-0.32,-0.325,-0.35,-0.37,-0.365,-0.355,-0.365,-0.36,-0.36,-0.345,-0.35,-0.35,-0.35,-0.345,-0.365,-0.37,-0.365,-0.37,-0.365,-0.365,-0.36,-0.36,-0.35,-0.34,-0.345,-0.36,-0.36,-0.395,-0.445,-0.5,-0.565,-0.57,-0.505,-0.325,-0.035,0.325,0.72,1.1,1.39,1.51,1.38,1.015,0.475,-0.005,-0.35,-0.525,-0.56,-0.52,-0.47,-0.415,-0.395,-0.385,-0.4,-0.425,-0.415,-0.41,-0.41,-0.39,-0.39,-0.385,-0.395,-0.405,-0.42,-0.43,-0.44,-0.44,-0.43,-0.425,-0.42,-0.41,-0.415,-0.415,-0.42,-0.405,-0.42,-0.42,-0.42,-0.425,-0.41,-0.425,-0.415,-0.42,-0.405,-0.4,-0.405,-0.4,-0.405,-0.41,-0.415,-0.42,-0.41,-0.42,-0.4,-0.4,-0.38,-0.385,-0.375,-0.38,-0.385,-0.385,-0.38,-0.38,-0.375,-0.375,-0.36,-0.355,-0.345,-0.34,-0.34,-0.335,-0.345,-0.35,-0.355,-0.35,-0.345,-0.345,-0.33,-0.32,-0.31,-0.32,-0.305,-0.305,-0.305,-0.315,-0.31,-0.315,-0.31,-0.31,-0.3,-0.295,-0.285,-0.275,-0.275,-0.27,-0.28,-0.275,-0.285,-0.3,-0.29,-0.28,-0.265,-0.265,-0.24,-0.245,-0.23,-0.235,-0.225,-0.225,-0.22,-0.23,-0.22,-0.22,-0.2,-0.185,-0.165,-0.165,-0.15,-0.145,-0.145,-0.13,-0.135,-0.12,-0.115,-0.1,-0.08,-0.065,-0.05,-0.05,-0.045,-0.025,-0.035,-0.03,-0.025,-0.035,-0.03,-0.045,-0.03,-0.03,-0.03,-0.05,-0.06,-0.065,-0.065,-0.075,-0.085,-0.105,-0.11,-0.115,-0.13,-0.125,-0.13,-0.14,-0.155,-0.17,-0.18,-0.195,-0.215,-0.22,-0.225,-0.23,-0.23,-0.225,-0.23,-0.23,-0.24,-0.245,-0.25,-0.265,-0.265,-0.28,-0.265,-0.275,-0.25,-0.26,-0.255,-0.25,-0.25,-0.245,-0.25,-0.26,-0.265,-0.27,-0.265,-0.26,-0.265,-0.255
0.0,231.0,-0.265,-0.255,-0.255,-0.24,-0.24,-0.24,-0.235,-0.24,-0.26,-0.26,-0.26,-0.265,-0.265,-0.25,-0.235,-0.235,-0.25,-0.235,-0.24,-0.25,-0.255,-0.255,-0.245,-0.26,-0.245,-0.25,-0.245,-0.235,-0.235,-0.23,-0.24,-0.24,-0.245,-0.255,-0.25,-0.255,-0.26,-0.235,-0.23,-0.215,-0.195,-0.195,-0.2,-0.195,-0.195,-0.185,-0.18,-0.175,-0.17,-0.165,-0.14,-0.115,-0.095,-0.07,-0.045,-0.035,-0.04,-0.045,-0.055,-0.065,-0.085,-0.09,-0.08,-0.085,-0.085,-0.1,-0.12,-0.13,-0.155,-0.18,-0.205,-0.22,-0.235,-0.245,-0.25,-0.26,-0.25,-0.24,-0.25,-0.26,-0.25,-0.27,-0.28,-0.275,-0.28,-0.265,-0.27,-0.27,-0.255,-0.25,-0.265,-0.265,-0.27,-0.275,-0.285,-0.275,-0.27,-0.28,-0.285,-0.305,-0.33,-0.395,-0.45,-0.515,-0.505,-0.405,-0.18,0.15,0.54,0.96,1.34,1.63,1.765,1.705,1.415,0.965,0.5,0.12,-0.085,-0.155,-0.155,-0.105,-0.05,-0.025,-0.04,-0.09,-0.155,-0.215,-0.265,-0.285,-0.29,-0.305,-0.295,-0.28,-0.285,-0.29,-0.29,-0.305,-0.305,-0.33,-0.32,-0.325,-0.335,-0.34,-0.34,-0.335,-0.33,-0.32,-0.325,-0.32,-0.335,-0.325,-0.33,-0.36,-0.355,-0.36,-0.37,-0.36,-0.345,-0.325,-0.325,-0.32,-0.315,-0.32,-0.33,-0.335,-0.34,-0.335,-0.34,-0.33,-0.315,-0.315,-0.305,-0.3,-0.31,-0.3,-0.305,-0.3,-0.3,-0.295,-0.29,-0.285,-0.28,-0.275,-0.265,-0.27,-0.27,-0.265,-0.28,-0.285,-0.285,-0.28,-0.27,-0.265,-0.245,-0.245,-0.225,-0.235,-0.235,-0.235,-0.23,-0.225,-0.23,-0.22,-0.215,-0.2,-0.195,-0.195,-0.17,-0.175,-0.17,-0.165,-0.165,-0.17,-0.16,-0.155,-0.145,-0.13,-0.125,-0.11,-0.1,-0.1,-0.1,-0.095,-0.09,-0.085,-0.085,-0.08,-0.065,-0.06,-0.05,-0.05,-0.05,-0.05,-0.03,-0.02,-0.01,0.01,0.015,0.025,0.025,0.035,0.04,0.06,0.075,0.085,0.09,0.09,0.09,0.08,0.07,0.065,0.035,0.045,0.045,0.05,0.045,0.02,0.005,-0.02,-0.035,-0.05,-0.055,-0.07,-0.075,-0.065,-0.085,-0.09,-0.09,-0.095,-0.1,-0.12,-0.14,-0.15,-0.165,-0.19,-0.185,-0.18,-0.155,-0.15,-0.14,-0.155,-0.175,-0.17,-0.175,-0.175,-0.195,-0.195,-0.19,-0.21,-0.2,-0.2,-0.185,-0.18,-0.165,-0.17,-0.175,-0.2,-0.205,-0.205
0.0,231.0,-0.2,-0.21,-0.22,-0.21,-0.22,-0.22,-0.225,-0.22,-0.225,-0.225,-0.235,-0.23,-0.22,-0.21,-0.205,-0.21,-0.21,-0.23,-0.225,-0.225,-0.22,-0.22,-0.235,-0.225,-0.215,-0.215,-0.215,-0.21,-0.225,-0.225,-0.23,-0.235,-0.225,-0.23,-0.215,-0.21,-0.2,-0.2,-0.2,-0.21,-0.21,-0.215,-0.205,-0.2,-0.19,-0.185,-0.17,-0.155,-0.14,-0.13,-0.12,-0.13,-0.115,-0.105,-0.085,-0.06,-0.05,-0.045,-0.035,-0.04,-0.035,-0.05,-0.06,-0.07,-0.085,-0.11,-0.14,-0.145,-0.165,-0.175,-0.18,-0.2,-0.215,-0.235,-0.25,-0.24,-0.25,-0.26,-0.26,-0.27,-0.275,-0.275,-0.28,-0.26,-0.26,-0.26,-0.26,-0.265,-0.275,-0.275,-0.285,-0.28,-0.27,-0.27,-0.265,-0.265,-0.255,-0.25,-0.27,-0.29,-0.305,-0.36,-0.435,-0.5,-0.515,-0.445,-0.265,0.035,0.405,0.81,1.195,1.5,1.655,1.605,1.305,0.84,0.345,-0.03,-0.235,-0.305,-0.285,-0.265,-0.235,-0.22,-0.24,-0.28,-0.305,-0.33,-0.34,-0.34,-0.325,-0.3,-0.29,-0.3,-0.31,-0.325,-0.355,-0.365,-0.365,-0.38,-0.36,-0.355,-0.355,-0.34,-0.335,-0.345,-0.345,-0.355,-0.355,-0.35,-0.365,-0.365,-0.38,-0.38,-0.365,-0.355,-0.35,-0.34,-0.34,-0.34,-0.355,-0.34,-0.35,-0.34,-0.345,-0.33,-0.325,-0.325,-0.31,-0.3,-0.31,-0.32,-0.315,-0.32,-0.34,-0.335,-0.34,-0.33,-0.315,-0.32,-0.305,-0.3,-0.29,-0.3,-0.295,-0.305,-0.29,-0.3,-0.3,-0.29,-0.285,-0.27,-0.27,-0.26,-0.255,-0.24,-0.25,-0.25,-0.255,-0.245,-0.245,-0.235,-0.22,-0.205,-0.2,-0.205,-0.205,-0.22,-0.205,-0.2,-0.21,-0.2,-0.19,-0.185,-0.18,-0.175,-0.16,-0.15,-0.145,-0.145,-0.16,-0.15,-0.155,-0.16,-0.155,-0.15,-0.135,-0.12,-0.105,-0.105,-0.1,-0.1,-0.095,-0.095,-0.095,-0.09,-0.075,-0.065,-0.055,-0.035,-0.025,-0.015,-0.015,-0.005,0.015,0.01,0.01,0.015,0.03,0.04,0.05,0.055,0.075,0.07,0.06,0.05,0.035,0.035,0.025,0.025,0.0,-0.015,-0.01,-0.03,-0.02,-0.025,-0.04,-0.05,-0.07,-0.105,-0.12,-0.115,-0.135,-0.135,-0.135,-0.145,-0.135,-0.145,-0.15,-0.17,-0.185,-0.185,-0.195,-0.21,-0.215,-0.2,-0.2,-0.205,-0.2,-0.2,-0.21,-0.215,-0.225,-0.215,-0.225,-0.225,-0.225,-0.22,-0.215,-0.21
0.0,231.0,-0.225,-0.215,-0.215,-0.215,-0.23,-0.24,-0.24,-0.25,-0.235,-0.225,-0.225,-0.215,-0.22,-0.22,-0.215,-0.22,-0.225,-0.225,-0.23,-0.23,-0.24,-0.235,-0.22,-0.22,-0.215,-0.215,-0.21,-0.215,-0.23,-0.225,-0.24,-0.24,-0.235,-0.215,-0.225,-0.205,-0.19,-0.19,-0.195,-0.195,-0.21,-0.215,-0.22,-0.22,-0.22,-0.185,-0.175,-0.16,-0.15,-0.155,-0.145,-0.125,-0.14,-0.12,-0.115,-0.115,-0.105,-0.08,-0.05,-0.035,-0.005,0.01,0.03,0.02,0.005,-0.005,-0.015,-0.05,-0.045,-0.065,-0.065,-0.085,-0.095,-0.12,-0.14,-0.155,-0.18,-0.195,-0.215,-0.205,-0.21,-0.215,-0.215,-0.22,-0.225,-0.215,-0.225,-0.225,-0.235,-0.235,-0.23,-0.225,-0.235,-0.235,-0.215,-0.205,-0.19,-0.19,-0.2,-0.205,-0.235,-0.27,-0.335,-0.405,-0.45,-0.435,-0.305,-0.02,0.355,0.8,1.265,1.635,1.835,1.76,1.395,0.875,0.325,-0.06,-0.255,-0.32,-0.26,-0.2,-0.135,-0.1,-0.12,-0.165,-0.215,-0.255,-0.27,-0.28,-0.27,-0.27,-0.255,-0.255,-0.255,-0.255,-0.26,-0.26,-0.27,-0.28,-0.275,-0.28,-0.27,-0.275,-0.265,-0.26,-0.265,-0.27,-0.28,-0.275,-0.285,-0.285,-0.28,-0.285,-0.28,-0.275,-0.26,-0.265,-0.27,-0.275,-0.28,-0.28,-0.295,-0.285,-0.27,-0.28,-0.27,-0.265,-0.265,-0.25,-0.245,-0.25,-0.24,-0.25,-0.25,-0.25,-0.255,-0.26,-0.255,-0.235,-0.23,-0.235,-0.245,-0.225,-0.23,-0.225,-0.21,-0.21,-0.215,-0.195,-0.18,-0.175,-0.185,-0.16,-0.16,-0.16,-0.17,-0.17,-0.155,-0.165,-0.165,-0.17,-0.145,-0.14,-0.115,-0.115,-0.095,-0.085,-0.08,-0.065,-0.055,-0.06,-0.05,-0.035,-0.03,-0.015,-0.005,0.005,0.01,0.01,0.025,0.045,0.04,0.04,0.05,0.05,0.06,0.075,0.095,0.11,0.125,0.13,0.125,0.12,0.105,0.125,0.13,0.15,0.175,0.17,0.19,0.19,0.18,0.16,0.17,0.16,0.16,0.145,0.14,0.11,0.135,0.135,0.135,0.13,0.115,0.08,0.055,0.04,0.005,-0.02,-0.015,-0.025,-0.035,-0.035,-0.045,-0.065,-0.09,-0.095,-0.115,-0.125,-0.125,-0.14,-0.15,-0.16,-0.16,-0.16,-0.155,-0.165,-0.165,-0.175,-0.17,-0.185,-0.19,-0.19,-0.2,-0.19,-0.18,-0.175,-0.175,-0.185,-0.195,-0.205,-0.2,-0.19,-0.19,-0.2,-0.19,-0.2,-0.21,-0.195
0.0,231.0,-0.21,-0.2,-0.195,-0.185,-0.175,-0.175,-0.18,-0.18,-0.19,-0.19,-0.195,-0.19,-0.185,-0.195,-0.19,-0.175,-0.165,-0.17,-0.175,-0.18,-0.18,-0.18,-0.21,-0.2,-0.19,-0.18,-0.165,-0.16,-0.16,-0.165,-0.175,-0.17,-0.175,-0.185,-0.185,-0.175,-0.17,-0.165,-0.16,-0.15,-0.14,-0.145,-0.13,-0.13,-0.135,-0.13,-0.125,-0.115,-0.115,-0.11,-0.095,-0.07,-0.045,-0.035,-0.02,-0.005,-0.005,0.0,0.025,0.015,0.005,0.0,-0.005,-0.005,-0.02,-0.03,-0.045,-0.065,-0.07,-0.095,-0.11,-0.14,-0.155,-0.17,-0.185,-0.185,-0.175,-0.19,-0.185,-0.19,-0.19,-0.205,-0.22,-0.225,-0.215,-0.21,-0.2,-0.2,-0.2,-0.2,-0.2,-0.2,-0.215,-0.215,-0.23,-0.215,-0.215,-0.21,-0.2,-0.205,-0.22,-0.25,-0.305,-0.385,-0.43,-0.45,-0.37,-0.16,0.16,0.555,0.97,1.365,1.645,1.755,1.6,1.215,0.72,0.27,-0.045,-0.205,-0.24,-0.205,-0.155,-0.12,-0.105,-0.14,-0.18,-0.215,-0.235,-0.245,-0.245,-0.245,-0.255,-0.255,-0.26,-0.255,-0.26,-0.27,-0.265,-0.265,-0.275,-0.28,-0.29,-0.29,-0.29,-0.28,-0.28,-0.275,-0.26,-0.265,-0.265,-0.275,-0.275,-0.275,-0.275,-0.27,-0.28,-0.27,-0.26,-0.25,-0.245,-0.25,-0.25,-0.25,-0.26,-0.265,-0.275,-0.265,-0.255,-0.25,-0.24,-0.235,-0.235,-0.235,-0.235,-0.24,-0.235,-0.25,-0.245,-0.245,-0.23,-0.22,-0.22,-0.215,-0.215,-0.19,-0.2,-0.19,-0.19,-0.2,-0.195,-0.19,-0.195,-0.175,-0.17,-0.16,-0.155,-0.145,-0.145,-0.14,-0.145,-0.145,-0.145,-0.135,-0.14,-0.115,-0.105,-0.09,-0.08,-0.075,-0.065,-0.075,-0.065,-0.07,-0.06,-0.065,-0.055,-0.045,-0.03,-0.02,-0.005,0.005,0.005,0.01,0.005,0.01,0.005,0.02,0.015,0.035,0.03,0.045,0.055,0.065,0.06,0.07,0.065,0.06,0.07,0.075,0.085,0.1,0.11,0.125,0.135,0.13,0.135,0.13,0.125,0.12,0.115,0.115,0.105,0.105,0.105,0.11,0.105,0.095,0.08,0.075,0.045,0.03,0.02,0.015,-0.01,-0.02,-0.03,-0.04,-0.04,-0.06,-0.07,-0.08,-0.1,-0.095,-0.115,-0.13,-0.12,-0.12,-0.14,-0.12,-0.12,-0.125,-0.135,-0.135,-0.14,-0.155,-0.155,-0.155,-0.16,-0.16,-0.165,-0.145,-0.145,-0.15,-0.14,-0.155,-0.16,-0.17,-0.175,-0.165
0.0,231.0,-0.18,-0.175,-0.165,-0.165,-0.15,-0.145,-0.15,-0.155,-0.15,-0.165,-0.17,-0.185,-0.175,-0.19,-0.165,-0.165,-0.16,-0.165,-0.17,-0.17,-0.17,-0.165,-0.165,-0.16,-0.15,-0.16,-0.165,-0.175,-0.16,-0.14,-0.15,-0.16,-0.15,-0.165,-0.165,-0.17,-0.18,-0.165,-0.16,-0.155,-0.15,-0.145,-0.145,-0.15,-0.145,-0.135,-0.12,-0.095,-0.095,-0.085,-0.08,-0.08,-0.065,-0.05,-0.04,-0.025,-0.02,-0.005,0.01,0.02,0.035,0.035,0.05,0.055,0.045,0.05,0.035,0.02,0.0,-0.015,-0.05,-0.065,-0.09,-0.11,-0.13,-0.155,-0.17,-0.16,-0.17,-0.155,-0.155,-0.15,-0.16,-0.18,-0.18,-0.185,-0.18,-0.165,-0.155,-0.16,-0.17,-0.17,-0.18,-0.185,-0.19,-0.19,-0.19,-0.19,-0.18,-0.185,-0.185,-0.205,-0.25,-0.31,-0.365,-0.385,-0.29,-0.09,0.22,0.625,1.04,1.425,1.695,1.74,1.495,1.025,0.475,0.015,-0.275,-0.395,-0.385,-0.33,-0.255,-0.215,-0.175,-0.18,-0.21,-0.215,-0.235,-0.23,-0.23,-0.235,-0.235,-0.245,-0.255,-0.25,-0.25,-0.245,-0.24,-0.24,-0.23,-0.23,-0.23,-0.23,-0.24,-0.25,-0.265,-0.28,-0.265,-0.26,-0.245,-0.24,-0.235,-0.235,-0.245,-0.255,-0.265,-0.27,-0.255,-0.225,-0.21,-0.2,-0.21,-0.215,-0.235,-0.24,-0.235,-0.23,-0.22,-0.21,-0.21,-0.205,-0.22,-0.215,-0.215,-0.215,-0.2,-0.195,-0.195,-0.21,-0.225,-0.225,-0.21,-0.18,-0.15,-0.14,-0.14,-0.14,-0.14,-0.165,-0.17,-0.17,-0.165,-0.16,-0.14,-0.125,-0.11,-0.095,-0.095,-0.11,-0.115,-0.11,-0.1,-0.08,-0.075,-0.07,-0.065,-0.05,-0.065,-0.055,-0.045,-0.03,-0.015,0.0,0.005,0.01,0.02,0.01,0.035,0.04,0.05,0.045,0.065,0.065,0.075,0.1,0.115,0.125,0.13,0.13,0.125,0.145,0.15,0.155,0.155,0.175,0.175,0.18,0.175,0.175,0.185,0.17,0.195,0.205,0.235,0.235,0.25,0.245,0.235,0.215,0.215,0.205,0.19,0.185,0.185,0.18,0.17,0.155,0.135,0.1,0.065,0.03,0.02,0.015,0.015,0.005,0.0,-0.01,-0.02,-0.025,-0.04,-0.05,-0.045,-0.07,-0.085,-0.105,-0.125,-0.15,-0.15,-0.135,-0.125,-0.105,-0.11,-0.105,-0.115,-0.12,-0.14,-0.15,-0.15,-0.14,-0.135,-0.135,-0.12,-0.125,-0.115,-0.12,-0.12,-0.13,-0.125,-0.13
0.0,231.0,-0.19,-0.19,-0.19,-0.195,-0.2,-0.18,-0.17,-0.165,-0.18,-0.175,-0.19,-0.185,-0.19,-0.185,-0.19,-0.19,-0.19,-0.18,-0.18,-0.165,-0.165,-0.165,-0.16,-0.165,-0.175,-0.18,-0.19,-0.19,-0.17,-0.185,-0.17,-0.16,-0.155,-0.15,-0.155,-0.165,-0.175,-0.17,-0.17,-0.165,-0.16,-0.145,-0.13,-0.11,-0.11,-0.1,-0.095,-0.105,-0.09,-0.1,-0.09,-0.075,-0.06,-0.04,-0.015,0.02,0.045,0.045,0.035,0.035,0.025,0.005,0.0,-0.02,-0.02,-0.03,-0.035,-0.045,-0.075,-0.085,-0.095,-0.125,-0.14,-0.16,-0.16,-0.17,-0.18,-0.17,-0.17,-0.165,-0.17,-0.175,-0.18,-0.2,-0.195,-0.205,-0.21,-0.22,-0.205,-0.205,-0.185,-0.185,-0.185,-0.185,-0.185,-0.19,-0.195,-0.21,-0.22,-0.225,-0.26,-0.295,-0.36,-0.41,-0.445,-0.4,-0.25,0.015,0.35,0.735,1.125,1.445,1.665,1.71,1.54,1.16,0.69,0.275,-0.005,-0.14,-0.18,-0.145,-0.11,-0.085,-0.085,-0.095,-0.14,-0.175,-0.21,-0.23,-0.23,-0.225,-0.225,-0.24,-0.245,-0.25,-0.26,-0.265,-0.26,-0.255,-0.255,-0.265,-0.27,-0.27,-0.29,-0.29,-0.285,-0.29,-0.285,-0.28,-0.275,-0.275,-0.265,-0.26,-0.27,-0.275,-0.285,-0.295,-0.295,-0.29,-0.285,-0.275,-0.28,-0.26,-0.275,-0.27,-0.27,-0.275,-0.27,-0.285,-0.28,-0.26,-0.265,-0.245,-0.245,-0.245,-0.235,-0.235,-0.235,-0.24,-0.24,-0.24,-0.24,-0.24,-0.235,-0.225,-0.215,-0.205,-0.2,-0.195,-0.185,-0.2,-0.2,-0.195,-0.19,-0.185,-0.2,-0.175,-0.15,-0.155,-0.135,-0.145,-0.15,-0.145,-0.135,-0.14,-0.135,-0.125,-0.105,-0.1,-0.095,-0.085,-0.09,-0.075,-0.055,-0.055,-0.045,-0.035,-0.025,-0.03,-0.015,0.005,0.02,0.03,0.035,0.05,0.05,0.06,0.055,0.06,0.055,0.065,0.07,0.085,0.105,0.105,0.13,0.125,0.125,0.125,0.13,0.11,0.11,0.125,0.13,0.145,0.16,0.175,0.17,0.165,0.155,0.14,0.135,0.11,0.1,0.095,0.1,0.09,0.09,0.1,0.075,0.065,0.055,0.045,0.005,-0.02,-0.035,-0.05,-0.05,-0.05,-0.055,-0.055,-0.065,-0.09,-0.1,-0.11,-0.115,-0.125,-0.115,-0.12,-0.11,-0.12,-0.11,-0.1,-0.105,-0.095,-0.09,-0.105,-0.11,-0.12,-0.14,-0.14,-0.13,-0.14,-0.11,-0.11,-0.1,-0.095,-0.105,-0.11
0.0,231.0,-0.15,-0.15,-0.165,-0.17,-0.165,-0.16,-0.155,-0.145,-0.15,-0.14,-0.15,-0.15,-0.155,-0.155,-0.155,-0.15,-0.155,-0.155,-0.15,-0.15,-0.155,-0.165,-0.145,-0.16,-0.135,-0.14,-0.125,-0.145,-0.145,-0.145,-0.13,-0.14,-0.135,-0.14,-0.145,-0.135,-0.125,-0.12,-0.12,-0.12,-0.125,-0.12,-0.14,-0.13,-0.13,-0.12,-0.115,-0.1,-0.08,-0.07,-0.065,-0.06,-0.05,-0.045,-0.055,-0.05,-0.03,-0.01,0.02,0.045,0.08,0.085,0.065,0.055,0.035,0.015,0.015,0.005,-0.005,-0.04,-0.04,-0.04,-0.05,-0.08,-0.105,-0.135,-0.135,-0.17,-0.175,-0.165,-0.17,-0.165,-0.17,-0.17,-0.17,-0.165,-0.155,-0.16,-0.17,-0.17,-0.19,-0.195,-0.19,-0.19,-0.18,-0.175,-0.17,-0.155,-0.175,-0.19,-0.18,-0.2,-0.225,-0.28,-0.335,-0.375,-0.35,-0.225,0.035,0.4,0.825,1.235,1.55,1.66,1.46,1.01,0.45,-0.01,-0.325,-0.45,-0.445,-0.385,-0.315,-0.265,-0.24,-0.24,-0.245,-0.26,-0.265,-0.245,-0.245,-0.25,-0.255,-0.25,-0.24,-0.255,-0.265,-0.28,-0.275,-0.285,-0.29,-0.285,-0.28,-0.27,-0.255,-0.26,-0.26,-0.26,-0.27,-0.28,-0.285,-0.28,-0.29,-0.275,-0.27,-0.255,-0.25,-0.26,-0.25,-0.255,-0.265,-0.26,-0.265,-0.26,-0.255,-0.26,-0.255,-0.245,-0.25,-0.24,-0.24,-0.25,-0.255,-0.245,-0.245,-0.255,-0.245,-0.23,-0.23,-0.215,-0.215,-0.21,-0.21,-0.215,-0.205,-0.205,-0.205,-0.21,-0.195,-0.205,-0.2,-0.18,-0.16,-0.165,-0.16,-0.15,-0.145,-0.16,-0.16,-0.16,-0.155,-0.14,-0.135,-0.12,-0.11,-0.12,-0.105,-0.1,-0.105,-0.105,-0.1,-0.095,-0.08,-0.075,-0.065,-0.045,-0.035,-0.03,-0.035,-0.02,-0.015,-0.015,-0.025,-0.02,-0.005,-0.005,0.005,0.02,0.025,0.035,0.04,0.055,0.04,0.06,0.045,0.06,0.055,0.08,0.09,0.095,0.11,0.115,0.135,0.14,0.145,0.14,0.145,0.15,0.14,0.14,0.145,0.145,0.15,0.14,0.135,0.13,0.125,0.105,0.09,0.08,0.07,0.055,0.03,0.015,0.025,0.01,0.005,-0.02,-0.045,-0.055,-0.08,-0.1,-0.1,-0.115,-0.11,-0.115,-0.12,-0.11,-0.115,-0.12,-0.15,-0.135,-0.15,-0.155,-0.16,-0.17,-0.15,-0.15,-0.155,-0.145,-0.145,-0.155,-0.145,-0.16,-0.16,-0.165,-0.16,-0.17,-0.165,-0.16
0.0,231.0,-0.18,-0.185,-0.185,-0.195,-0.2,-0.205,-0.21,-0.22,-0.215,-0.21,-0.21,-0.195,-0.195,-0.2,-0.2,-0.215,-0.205,-0.205,-0.205,-0.195,-0.195,-0.195,-0.185,-0.18,-0.18,-0.19,-0.185,-0.195,-0.2,-0.2,-0.2,-0.195,-0.2,-0.19,-0.18,-0.165,-0.17,-0.175,-0.175,-0.18,-0.185,-0.19,-0.175,-0.17,-0.155,-0.135,-0.13,-0.11,-0.095,-0.095,-0.09,-0.1,-0.085,-0.085,-0.07,-0.05,-0.025,0.0,0.025,0.035,0.04,0.035,0.02,0.005,-0.01,-0.035,-0.04,-0.05,-0.065,-0.07,-0.08,-0.1,-0.11,-0.14,-0.155,-0.18,-0.19,-0.205,-0.205,-0.215,-0.21,-0.195,-0.205,-0.2,-0.205,-0.215,-0.21,-0.225,-0.21,-0.225,-0.235,-0.225,-0.235,-0.23,-0.22,-0.215,-0.21,-0.21,-0.215,-0.235,-0.26,-0.32,-0.39,-0.45,-0.505,-0.465,-0.32,-0.03,0.34,0.76,1.2,1.545,1.78,1.78,1.535,1.085,0.58,0.18,-0.055,-0.16,-0.155,-0.11,-0.055,-0.04,-0.05,-0.095,-0.155,-0.22,-0.235,-0.245,-0.245,-0.24,-0.23,-0.24,-0.24,-0.25,-0.265,-0.275,-0.295,-0.3,-0.31,-0.31,-0.31,-0.295,-0.29,-0.295,-0.29,-0.29,-0.29,-0.285,-0.305,-0.3,-0.29,-0.3,-0.31,-0.305,-0.295,-0.295,-0.28,-0.275,-0.265,-0.275,-0.275,-0.285,-0.29,-0.28,-0.285,-0.275,-0.255,-0.255,-0.245,-0.26,-0.255,-0.265,-0.265,-0.27,-0.265,-0.265,-0.255,-0.25,-0.25,-0.24,-0.23,-0.23,-0.23,-0.215,-0.215,-0.225,-0.225,-0.2,-0.205,-0.2,-0.2,-0.195,-0.185,-0.185,-0.185,-0.18,-0.185,-0.195,-0.18,-0.165,-0.14,-0.125,-0.095,-0.095,-0.115,-0.13,-0.125,-0.125,-0.125,-0.1,-0.085,-0.07,-0.045,-0.03,-0.02,0.0,0.005,-0.005,-0.005,-0.005,0.005,0.025,0.045,0.06,0.085,0.11,0.125,0.125,0.125,0.125,0.135,0.13,0.13,0.135,0.135,0.15,0.155,0.17,0.18,0.18,0.19,0.18,0.18,0.175,0.18,0.16,0.175,0.175,0.17,0.165,0.165,0.16,0.16,0.16,0.155,0.145,0.12,0.095,0.085,0.075,0.055,0.045,0.035,0.015,-0.005,-0.025,-0.04,-0.06,-0.08,-0.095,-0.105,-0.125,-0.11,-0.105,-0.095,-0.105,-0.115,-0.125,-0.15,-0.155,-0.145,-0.15,-0.165,-0.155,-0.155,-0.155,-0.145,-0.16,-0.14,-0.15,-0.185,-0.165,-0.18,-0.19,-0.195,-0.175,-0.175,-0.15
0.0,231.0,-0.195,-0.195,-0.2,-0.21,-0.21,-0.215,-0.215,-0.225,-0.215,-0.215,-0.22,-0.21,-0.21,-0.21,-0.21,-0.215,-0.225,-0.23,-0.22,-0.215,-0.215,-0.21,-0.21,-0.21,-0.215,-0.225,-0.215,-0.22,-0.215,-0.23,-0.225,-0.235,-0.21,-0.22,-0.2,-0.19,-0.19,-0.195,-0.18,-0.185,-0.18,-0.18,-0.175,-0.16,-0.145,-0.14,-0.12,-0.125,-0.11,-0.1,-0.085,-0.085,-0.07,-0.06,-0.04,-0.025,-0.015,-0.015,-0.02,-0.03,-0.03,-0.055,-0.06,-0.075,-0.095,-0.115,-0.125,-0.145,-0.155,-0.16,-0.185,-0.19,-0.21,-0.225,-0.23,-0.24,-0.245,-0.245,-0.24,-0.25,-0.255,-0.245,-0.245,-0.23,-0.24,-0.235,-0.24,-0.24,-0.25,-0.255,-0.26,-0.27,-0.25,-0.255,-0.24,-0.235,-0.24,-0.25,-0.255,-0.285,-0.315,-0.37,-0.425,-0.49,-0.515,-0.46,-0.315,-0.055,0.275,0.665,1.04,1.365,1.59,1.625,1.445,1.065,0.6,0.185,-0.085,-0.22,-0.26,-0.235,-0.215,-0.2,-0.2,-0.23,-0.255,-0.29,-0.3,-0.31,-0.295,-0.28,-0.275,-0.28,-0.295,-0.305,-0.33,-0.34,-0.35,-0.35,-0.34,-0.335,-0.325,-0.32,-0.325,-0.32,-0.33,-0.345,-0.35,-0.36,-0.355,-0.355,-0.35,-0.345,-0.34,-0.33,-0.335,-0.33,-0.34,-0.34,-0.34,-0.35,-0.35,-0.35,-0.335,-0.33,-0.315,-0.315,-0.315,-0.305,-0.315,-0.32,-0.33,-0.33,-0.33,-0.33,-0.31,-0.305,-0.3,-0.285,-0.29,-0.285,-0.295,-0.295,-0.295,-0.3,-0.295,-0.29,-0.28,-0.275,-0.265,-0.26,-0.265,-0.255,-0.255,-0.26,-0.265,-0.265,-0.26,-0.255,-0.24,-0.235,-0.22,-0.22,-0.205,-0.195,-0.205,-0.195,-0.195,-0.205,-0.19,-0.185,-0.175,-0.155,-0.145,-0.135,-0.13,-0.115,-0.12,-0.125,-0.145,-0.14,-0.125,-0.105,-0.08,-0.075,-0.065,-0.055,-0.045,-0.04,-0.035,-0.02,-0.02,-0.025,-0.025,-0.01,0.005,0.01,0.02,0.025,0.03,0.04,0.045,0.035,0.045,0.04,0.05,0.045,0.055,0.055,0.07,0.085,0.085,0.075,0.07,0.065,0.05,0.035,0.03,0.02,0.02,0.015,0.0,0.005,-0.02,-0.045,-0.05,-0.07,-0.085,-0.105,-0.12,-0.13,-0.125,-0.135,-0.14,-0.14,-0.15,-0.16,-0.17,-0.18,-0.2,-0.215,-0.205,-0.215,-0.225,-0.21,-0.215,-0.195,-0.21,-0.205,-0.21,-0.22,-0.235,-0.235,-0.235,-0.23,-0.225,-0.215,-0.21,-0.205
1.0,231.0,-0.68,-0.685,-0.695,-0.7,-0.705,-0.705,-0.715,-0.695,-0.715,-0.715,-0.72,-0.735,-0.745,-0.755,-0.765,-0.76,-0.76,-0.765,-0.765,-0.765,-0.775,-0.77,-0.78,-0.795,-0.805,-0.815,-0.82,-0.82,-0.81,-0.805,-0.8,-0.795,-0.79,-0.79,-0.79,-0.795,-0.8,-0.81,-0.805,-0.82,-0.825,-0.815,-0.825,-0.83,-0.855,-0.88,-0.94,-0.955,-1.0,-1.035,-1.065,-1.085,-1.1,-1.13,-1.135,-1.13,-1.14,-1.155,-1.155,-1.18,-1.205,-1.235,-1.255,-1.275,-1.295,-1.31,-1.325,-1.32,-1.33,-1.335,-1.34,-1.35,-1.35,-1.355,-1.34,-1.325,-1.31,-1.28,-1.245,-1.22,-1.19,-1.155,-1.135,-1.09,-1.07,-1.03,-0.975,-0.93,-0.88,-0.825,-0.79,-0.73,-0.68,-0.62,-0.555,-0.505,-0.445,-0.37,-0.28,-0.16,-0.005,0.155,0.34,0.51,0.695,0.885,1.06,1.225,1.395,1.535,1.645,1.695,1.695,1.645,1.585,1.51,1.435,1.36,1.28,1.2,1.1,0.98,0.84,0.69,0.515,0.365,0.23,0.11,0.0,-0.105,-0.23,-0.32,-0.4,-0.435,-0.445,-0.445,-0.44,-0.445,-0.455,-0.485,-0.525,-0.545,-0.585,-0.6,-0.625,-0.635,-0.655,-0.66,-0.665,-0.66,-0.66,-0.66,-0.675,-0.675,-0.685,-0.69,-0.71,-0.71,-0.71,-0.7,-0.7,-0.695,-0.685,-0.685,-0.685,-0.68,-0.69,-0.69,-0.695,-0.705,-0.705,-0.695,-0.7,-0.695,-0.69,-0.69,-0.68,-0.69,-0.695,-0.695,-0.705,-0.72,-0.715,-0.725,-0.72,-0.715,-0.71,-0.705,-0.705,-0.715,-0.715,-0.725,-0.74,-0.745,-0.765,-0.755,-0.74,-0.745,-0.725,-0.71,-0.71,-0.7,-0.705,-0.695,-0.705,-0.7,-0.695,-0.695,-0.68,-0.66,-0.64,-0.635,-0.62,-0.595,-0.585,-0.545,-0.54,-0.51,-0.495,-0.47,-0.445,-0.41,-0.385,-0.36,-0.33,-0.31,-0.3,-0.295,-0.28,-0.28,-0.26,-0.255,-0.24,-0.22,-0.205,-0.185,-0.17,-0.18,-0.175,-0.18,-0.195,-0.22,-0.23,-0.235,-0.225,-0.21,-0.21,-0.2,-0.205,-0.205,-0.23,-0.24,-0.245,-0.26,-0.255,-0.26,-0.26,-0.24,-0.24,-0.245,-0.245,-0.26,-0.28,-0.28,-0.285,-0.28,-0.29,-0.3,-0.265,-0.27,-0.27,-0.27,-0.27,-0.275,-0.28,-0.285,-0.28,-0.28,-0.295,-0.29,-0.285,-0.285,-0.28,-0.275,-0.27,-0.28,-0.28,-0.285,-0.295,-0.305,-0.33,-0.315,-0.315,-0.305,-0.3,-0.27,-0.28,-0.28,-0.29,-0.295
0.0,231.0,-0.25,-0.26,-0.265,-0.255,-0.255,-0.25,-0.23,-0.24,-0.235,-0.245,-0.245,-0.25,-0.255,-0.265,-0.255,-0.25,-0.245,-0.245,-0.245,-0.235,-0.24,-0.235,-0.25,-0.255,-0.26,-0.255,-0.245,-0.25,-0.24,-0.23,-0.245,-0.22,-0.225,-0.23,-0.235,-0.225,-0.23,-0.22,-0.225,-0.225,-0.23,-0.2,-0.185,-0.17,-0.17,-0.16,-0.155,-0.16,-0.16,-0.16,-0.14,-0.13,-0.1,-0.08,-0.055,-0.035,-0.025,-0.03,-0.03,-0.045,-0.06,-0.075,-0.08,-0.1,-0.11,-0.105,-0.105,-0.125,-0.125,-0.15,-0.155,-0.185,-0.215,-0.23,-0.24,-0.245,-0.245,-0.23,-0.235,-0.225,-0.23,-0.23,-0.235,-0.245,-0.265,-0.26,-0.275,-0.265,-0.255,-0.255,-0.235,-0.225,-0.24,-0.235,-0.24,-0.245,-0.245,-0.245,-0.26,-0.275,-0.28,-0.32,-0.375,-0.43,-0.46,-0.425,-0.27,-0.02,0.305,0.685,1.07,1.39,1.585,1.56,1.3,0.89,0.43,0.085,-0.135,-0.215,-0.225,-0.185,-0.15,-0.135,-0.135,-0.16,-0.195,-0.24,-0.255,-0.26,-0.275,-0.27,-0.275,-0.29,-0.3,-0.305,-0.305,-0.305,-0.305,-0.295,-0.31,-0.305,-0.32,-0.315,-0.32,-0.33,-0.325,-0.325,-0.33,-0.315,-0.31,-0.3,-0.29,-0.29,-0.31,-0.31,-0.31,-0.32,-0.32,-0.31,-0.315,-0.305,-0.295,-0.3,-0.29,-0.285,-0.295,-0.295,-0.3,-0.305,-0.295,-0.3,-0.285,-0.28,-0.27,-0.275,-0.275,-0.27,-0.28,-0.265,-0.28,-0.28,-0.28,-0.275,-0.26,-0.255,-0.25,-0.25,-0.245,-0.25,-0.25,-0.255,-0.255,-0.255,-0.25,-0.25,-0.225,-0.23,-0.215,-0.215,-0.21,-0.215,-0.22,-0.205,-0.21,-0.215,-0.22,-0.21,-0.215,-0.195,-0.19,-0.175,-0.185,-0.18,-0.185,-0.195,-0.205,-0.215,-0.205,-0.2,-0.205,-0.18,-0.16,-0.135,-0.125,-0.115,-0.12,-0.11,-0.115,-0.1,-0.095,-0.08,-0.07,-0.04,-0.02,0.015,0.025,0.04,0.045,0.04,0.045,0.03,0.045,0.055,0.07,0.09,0.1,0.12,0.125,0.14,0.135,0.145,0.14,0.115,0.115,0.12,0.115,0.125,0.135,0.13,0.14,0.13,0.12,0.115,0.09,0.07,0.065,0.07,0.065,0.07,0.07,0.055,0.035,0.025,-0.01,-0.025,-0.045,-0.05,-0.065,-0.065,-0.055,-0.065,-0.06,-0.07,-0.085,-0.105,-0.115,-0.135,-0.135,-0.14,-0.125,-0.12,-0.115,-0.11,-0.125,-0.125,-0.135,-0.135,-0.135,-0.13
0.0,231.0,-0.265,-0.255,-0.25,-0.24,-0.255,-0.255,-0.255,-0.27,-0.27,-0.28,-0.265,-0.27,-0.265,-0.24,-0.245,-0.245,-0.25,-0.25,-0.265,-0.27,-0.27,-0.26,-0.26,-0.26,-0.245,-0.24,-0.235,-0.245,-0.245,-0.25,-0.26,-0.265,-0.26,-0.26,-0.25,-0.265,-0.235,-0.245,-0.23,-0.23,-0.23,-0.23,-0.215,-0.225,-0.225,-0.215,-0.2,-0.18,-0.175,-0.165,-0.155,-0.14,-0.115,-0.105,-0.095,-0.08,-0.08,-0.09,-0.095,-0.095,-0.095,-0.105,-0.11,-0.115,-0.14,-0.15,-0.17,-0.18,-0.2,-0.205,-0.225,-0.235,-0.235,-0.245,-0.255,-0.25,-0.255,-0.27,-0.29,-0.285,-0.29,-0.28,-0.285,-0.29,-0.28,-0.26,-0.26,-0.27,-0.28,-0.275,-0.275,-0.3,-0.29,-0.285,-0.28,-0.28,-0.275,-0.265,-0.27,-0.285,-0.32,-0.36,-0.41,-0.47,-0.505,-0.47,-0.305,-0.06,0.28,0.66,1.025,1.34,1.5,1.46,1.2,0.775,0.345,0.005,-0.19,-0.265,-0.26,-0.215,-0.19,-0.17,-0.185,-0.24,-0.275,-0.32,-0.33,-0.33,-0.325,-0.32,-0.325,-0.325,-0.325,-0.34,-0.345,-0.35,-0.36,-0.375,-0.365,-0.365,-0.35,-0.35,-0.35,-0.345,-0.345,-0.35,-0.355,-0.35,-0.355,-0.355,-0.365,-0.36,-0.355,-0.35,-0.345,-0.335,-0.335,-0.34,-0.34,-0.345,-0.35,-0.34,-0.34,-0.34,-0.33,-0.335,-0.325,-0.315,-0.315,-0.31,-0.32,-0.32,-0.325,-0.335,-0.335,-0.335,-0.335,-0.315,-0.305,-0.305,-0.295,-0.295,-0.3,-0.3,-0.3,-0.3,-0.305,-0.295,-0.29,-0.285,-0.265,-0.26,-0.26,-0.265,-0.27,-0.27,-0.275,-0.275,-0.275,-0.275,-0.265,-0.25,-0.245,-0.225,-0.225,-0.225,-0.235,-0.225,-0.23,-0.23,-0.23,-0.22,-0.215,-0.205,-0.195,-0.18,-0.18,-0.185,-0.17,-0.185,-0.175,-0.175,-0.16,-0.155,-0.125,-0.115,-0.1,-0.07,-0.07,-0.06,-0.035,-0.025,-0.025,-0.015,-0.01,-0.005,0.025,0.04,0.045,0.07,0.075,0.08,0.085,0.09,0.09,0.085,0.09,0.095,0.08,0.09,0.09,0.09,0.08,0.065,0.055,0.04,0.015,0.01,0.005,0.01,-0.01,-0.01,-0.03,-0.02,-0.035,-0.045,-0.055,-0.065,-0.085,-0.105,-0.11,-0.13,-0.15,-0.15,-0.155,-0.135,-0.14,-0.145,-0.15,-0.15,-0.15,-0.17,-0.18,-0.185,-0.185,-0.185,-0.18,-0.185,-0.175,-0.18,-0.17,-0.17,-0.175,-0.185,-0.185,-0.18,-0.18,-0.17
0.0,231.0,-0.255,-0.25,-0.25,-0.27,-0.265,-0.25,-0.25,-0.235,-0.23,-0.22,-0.24,-0.235,-0.245,-0.26,-0.255,-0.255,-0.255,-0.255,-0.255,-0.255,-0.245,-0.24,-0.245,-0.245,-0.245,-0.25,-0.265,-0.275,-0.265,-0.255,-0.255,-0.245,-0.245,-0.24,-0.24,-0.24,-0.255,-0.26,-0.245,-0.26,-0.26,-0.25,-0.245,-0.24,-0.225,-0.225,-0.22,-0.22,-0.215,-0.215,-0.21,-0.205,-0.195,-0.19,-0.175,-0.16,-0.145,-0.135,-0.11,-0.095,-0.08,-0.07,-0.065,-0.085,-0.08,-0.09,-0.09,-0.1,-0.11,-0.12,-0.13,-0.14,-0.175,-0.2,-0.225,-0.245,-0.255,-0.265,-0.265,-0.265,-0.26,-0.26,-0.275,-0.275,-0.29,-0.3,-0.29,-0.315,-0.3,-0.295,-0.285,-0.28,-0.28,-0.28,-0.27,-0.285,-0.295,-0.29,-0.29,-0.29,-0.315,-0.33,-0.355,-0.405,-0.455,-0.48,-0.435,-0.285,-0.01,0.37,0.775,1.155,1.42,1.485,1.27,0.835,0.365,-0.055,-0.305,-0.4,-0.4,-0.35,-0.32,-0.28,-0.28,-0.3,-0.31,-0.335,-0.33,-0.335,-0.32,-0.32,-0.32,-0.33,-0.34,-0.355,-0.375,-0.36,-0.35,-0.355,-0.33,-0.33,-0.34,-0.35,-0.345,-0.365,-0.36,-0.365,-0.36,-0.36,-0.36,-0.34,-0.335,-0.345,-0.345,-0.335,-0.34,-0.35,-0.36,-0.355,-0.355,-0.35,-0.345,-0.345,-0.33,-0.33,-0.33,-0.335,-0.335,-0.34,-0.335,-0.345,-0.345,-0.335,-0.33,-0.32,-0.32,-0.3,-0.315,-0.315,-0.31,-0.315,-0.315,-0.315,-0.31,-0.31,-0.295,-0.29,-0.275,-0.275,-0.275,-0.27,-0.275,-0.285,-0.285,-0.28,-0.285,-0.275,-0.27,-0.26,-0.245,-0.24,-0.24,-0.245,-0.24,-0.245,-0.245,-0.27,-0.255,-0.245,-0.24,-0.23,-0.225,-0.22,-0.21,-0.21,-0.215,-0.215,-0.215,-0.215,-0.21,-0.2,-0.18,-0.175,-0.155,-0.145,-0.145,-0.13,-0.125,-0.125,-0.115,-0.105,-0.105,-0.09,-0.08,-0.075,-0.055,-0.04,-0.025,-0.015,-0.01,-0.005,-0.01,-0.005,0.005,0.005,0.01,0.02,0.02,0.025,0.03,0.01,0.005,-0.005,-0.005,-0.02,-0.02,-0.035,-0.035,-0.055,-0.05,-0.075,-0.09,-0.09,-0.1,-0.125,-0.135,-0.14,-0.145,-0.15,-0.15,-0.145,-0.165,-0.16,-0.175,-0.185,-0.19,-0.2,-0.205,-0.195,-0.2,-0.2,-0.205,-0.21,-0.195,-0.185,-0.18,-0.185,-0.19,-0.195,-0.21,-0.21,-0.21,-0.205,-0.2,-0.195,-0.185,-0.19,-0.185,-0.185
0.0,231.0,-0.25,-0.245,-0.26,-0.255,-0.265,-0.25,-0.255,-0.26,-0.255,-0.255,-0.245,-0.245,-0.245,-0.255,-0.28,-0.285,-0.295,-0.295,-0.28,-0.275,-0.24,-0.22,-0.205,-0.2,-0.21,-0.23,-0.225,-0.235,-0.25,-0.26,-0.245,-0.25,-0.24,-0.255,-0.235,-0.225,-0.235,-0.23,-0.23,-0.235,-0.215,-0.22,-0.215,-0.2,-0.195,-0.175,-0.155,-0.145,-0.135,-0.125,-0.12,-0.09,-0.085,-0.075,-0.065,-0.06,-0.06,-0.055,-0.055,-0.065,-0.09,-0.1,-0.125,-0.135,-0.155,-0.17,-0.19,-0.19,-0.215,-0.215,-0.23,-0.245,-0.25,-0.255,-0.265,-0.27,-0.285,-0.3,-0.28,-0.27,-0.265,-0.255,-0.245,-0.255,-0.25,-0.255,-0.26,-0.26,-0.275,-0.285,-0.295,-0.29,-0.29,-0.285,-0.27,-0.265,-0.255,-0.26,-0.27,-0.285,-0.325,-0.375,-0.445,-0.49,-0.52,-0.47,-0.31,-0.065,0.245,0.59,0.97,1.295,1.51,1.61,1.495,1.18,0.705,0.265,-0.09,-0.295,-0.355,-0.34,-0.29,-0.26,-0.235,-0.255,-0.27,-0.31,-0.33,-0.345,-0.34,-0.325,-0.305,-0.3,-0.295,-0.305,-0.325,-0.34,-0.345,-0.355,-0.35,-0.345,-0.33,-0.32,-0.33,-0.335,-0.335,-0.355,-0.35,-0.37,-0.375,-0.375,-0.355,-0.335,-0.315,-0.315,-0.305,-0.31,-0.325,-0.335,-0.35,-0.345,-0.345,-0.325,-0.32,-0.31,-0.3,-0.315,-0.32,-0.325,-0.32,-0.315,-0.305,-0.305,-0.31,-0.31,-0.31,-0.305,-0.305,-0.3,-0.3,-0.29,-0.295,-0.33,-0.335,-0.325,-0.305,-0.29,-0.26,-0.25,-0.23,-0.245,-0.23,-0.24,-0.25,-0.26,-0.265,-0.26,-0.255,-0.245,-0.23,-0.23,-0.215,-0.22,-0.225,-0.21,-0.195,-0.19,-0.195,-0.19,-0.19,-0.19,-0.175,-0.155,-0.14,-0.15,-0.16,-0.16,-0.165,-0.16,-0.145,-0.145,-0.125,-0.125,-0.115,-0.105,-0.105,-0.1,-0.105,-0.1,-0.085,-0.08,-0.065,-0.075,-0.06,-0.035,-0.04,-0.025,-0.02,-0.02,-0.015,-0.015,-0.005,0.01,0.025,0.025,0.045,0.05,0.05,0.07,0.085,0.095,0.105,0.1,0.09,0.075,0.065,0.05,0.045,0.045,0.045,0.04,0.03,0.015,-0.02,-0.02,-0.05,-0.055,-0.06,-0.065,-0.07,-0.07,-0.075,-0.09,-0.095,-0.12,-0.13,-0.165,-0.175,-0.165,-0.18,-0.19,-0.175,-0.195,-0.185,-0.19,-0.19,-0.2,-0.2,-0.19,-0.19,-0.205,-0.215,-0.22,-0.22,-0.24,-0.235,-0.21,-0.19,-0.185
0.0,231.0,-0.24,-0.225,-0.22,-0.225,-0.21,-0.22,-0.225,-0.225,-0.24,-0.235,-0.23,-0.235,-0.225,-0.225,-0.215,-0.215,-0.21,-0.225,-0.22,-0.225,-0.225,-0.235,-0.235,-0.24,-0.235,-0.225,-0.215,-0.205,-0.21,-0.21,-0.21,-0.215,-0.225,-0.215,-0.215,-0.22,-0.2,-0.195,-0.195,-0.185,-0.18,-0.18,-0.18,-0.175,-0.18,-0.17,-0.15,-0.15,-0.135,-0.125,-0.13,-0.105,-0.11,-0.085,-0.065,-0.045,-0.035,-0.02,-0.015,-0.005,-0.01,-0.03,-0.02,-0.025,-0.05,-0.055,-0.075,-0.085,-0.105,-0.135,-0.145,-0.16,-0.175,-0.18,-0.19,-0.19,-0.2,-0.2,-0.21,-0.225,-0.23,-0.24,-0.23,-0.245,-0.24,-0.23,-0.23,-0.225,-0.235,-0.225,-0.23,-0.245,-0.245,-0.25,-0.235,-0.24,-0.24,-0.235,-0.23,-0.235,-0.28,-0.325,-0.385,-0.46,-0.5,-0.44,-0.28,-0.005,0.37,0.775,1.16,1.475,1.615,1.525,1.22,0.765,0.315,-0.02,-0.195,-0.26,-0.235,-0.19,-0.16,-0.145,-0.16,-0.2,-0.25,-0.275,-0.305,-0.305,-0.295,-0.295,-0.285,-0.285,-0.305,-0.295,-0.31,-0.31,-0.32,-0.325,-0.325,-0.325,-0.34,-0.33,-0.315,-0.33,-0.315,-0.31,-0.305,-0.31,-0.315,-0.32,-0.325,-0.32,-0.325,-0.32,-0.315,-0.33,-0.315,-0.31,-0.31,-0.305,-0.31,-0.305,-0.31,-0.315,-0.31,-0.3,-0.295,-0.285,-0.28,-0.27,-0.275,-0.265,-0.295,-0.275,-0.285,-0.285,-0.29,-0.3,-0.275,-0.28,-0.26,-0.24,-0.24,-0.235,-0.235,-0.235,-0.24,-0.245,-0.24,-0.245,-0.225,-0.22,-0.21,-0.195,-0.21,-0.195,-0.205,-0.195,-0.2,-0.2,-0.215,-0.205,-0.2,-0.185,-0.175,-0.18,-0.16,-0.155,-0.145,-0.15,-0.16,-0.145,-0.15,-0.15,-0.135,-0.135,-0.12,-0.125,-0.125,-0.115,-0.105,-0.11,-0.1,-0.105,-0.105,-0.095,-0.085,-0.08,-0.06,-0.055,-0.04,-0.045,-0.045,-0.035,-0.04,-0.04,-0.03,-0.025,-0.015,0.005,0.03,0.035,0.04,0.045,0.045,0.055,0.055,0.06,0.05,0.055,0.04,0.055,0.045,0.055,0.045,0.04,0.03,0.015,0.005,-0.01,-0.025,-0.035,-0.045,-0.05,-0.055,-0.05,-0.07,-0.08,-0.1,-0.12,-0.15,-0.155,-0.16,-0.16,-0.155,-0.145,-0.14,-0.145,-0.15,-0.17,-0.185,-0.175,-0.17,-0.2,-0.195,-0.185,-0.175,-0.175,-0.165,-0.155,-0.17,-0.17,-0.185,-0.19,-0.2,-0.205,-0.195,-0.185
0.0,231.0,-0.225,-0.23,-0.22,-0.215,-0.22,-0.215,-0.215,-0.225,-0.225,-0.215,-0.21,-0.215,-0.21,-0.215,-0.235,-0.23,-0.24,-0.24,-0.245,-0.235,-0.225,-0.215,-0.21,-0.225,-0.22,-0.205,-0.21,-0.21,-0.22,-0.23,-0.235,-0.245,-0.25,-0.23,-0.215,-0.205,-0.195,-0.19,-0.185,-0.195,-0.2,-0.19,-0.195,-0.175,-0.16,-0.15,-0.135,-0.14,-0.12,-0.125,-0.135,-0.125,-0.11,-0.075,-0.06,-0.045,-0.04,-0.03,-0.02,-0.035,-0.04,-0.06,-0.08,-0.09,-0.1,-0.11,-0.125,-0.13,-0.135,-0.14,-0.165,-0.175,-0.185,-0.21,-0.225,-0.225,-0.225,-0.225,-0.235,-0.23,-0.235,-0.23,-0.22,-0.23,-0.225,-0.235,-0.245,-0.25,-0.255,-0.255,-0.245,-0.235,-0.225,-0.21,-0.22,-0.21,-0.2,-0.215,-0.23,-0.25,-0.28,-0.32,-0.365,-0.425,-0.445,-0.41,-0.285,-0.09,0.2,0.535,0.875,1.18,1.385,1.44,1.27,0.9,0.42,-0.02,-0.29,-0.425,-0.435,-0.395,-0.355,-0.33,-0.32,-0.315,-0.315,-0.32,-0.32,-0.31,-0.29,-0.285,-0.27,-0.28,-0.29,-0.305,-0.315,-0.32,-0.325,-0.33,-0.31,-0.295,-0.305,-0.3,-0.295,-0.3,-0.305,-0.305,-0.31,-0.315,-0.31,-0.32,-0.32,-0.3,-0.29,-0.29,-0.3,-0.305,-0.305,-0.305,-0.315,-0.31,-0.3,-0.3,-0.29,-0.28,-0.27,-0.27,-0.27,-0.275,-0.28,-0.285,-0.28,-0.275,-0.285,-0.28,-0.27,-0.27,-0.25,-0.26,-0.25,-0.25,-0.25,-0.255,-0.255,-0.25,-0.25,-0.24,-0.24,-0.22,-0.215,-0.215,-0.215,-0.21,-0.205,-0.205,-0.21,-0.215,-0.205,-0.2,-0.195,-0.19,-0.185,-0.185,-0.165,-0.185,-0.185,-0.185,-0.19,-0.175,-0.17,-0.17,-0.155,-0.155,-0.145,-0.14,-0.135,-0.13,-0.14,-0.135,-0.145,-0.13,-0.125,-0.12,-0.115,-0.1,-0.075,-0.075,-0.06,-0.065,-0.06,-0.055,-0.055,-0.05,-0.04,-0.02,-0.015,-0.005,0.025,0.035,0.045,0.055,0.05,0.055,0.04,0.045,0.055,0.06,0.06,0.065,0.065,0.065,0.045,0.04,0.025,-0.005,-0.015,-0.035,-0.045,-0.045,-0.045,-0.045,-0.045,-0.07,-0.08,-0.1,-0.115,-0.135,-0.15,-0.16,-0.17,-0.17,-0.175,-0.175,-0.175,-0.175,-0.175,-0.19,-0.195,-0.2,-0.215,-0.22,-0.22,-0.215,-0.215,-0.205,-0.195,-0.195,-0.19,-0.195,-0.2,-0.215,-0.215,-0.22,-0.225,-0.215,-0.225,-0.22,-0.21,-0.215
0.0,231.0,-0.21,-0.215,-0.2,-0.21,-0.215,-0.215,-0.21,-0.21,-0.215,-0.215,-0.215,-0.215,-0.22,-0.225,-0.205,-0.21,-0.215,-0.22,-0.23,-0.235,-0.22,-0.21,-0.195,-0.195,-0.195,-0.2,-0.195,-0.195,-0.215,-0.225,-0.23,-0.21,-0.215,-0.205,-0.205,-0.19,-0.2,-0.195,-0.2,-0.18,-0.185,-0.185,-0.185,-0.18,-0.175,-0.16,-0.155,-0.145,-0.13,-0.125,-0.115,-0.11,-0.1,-0.08,-0.06,-0.04,-0.02,-0.005,-0.005,-0.01,-0.015,-0.04,-0.045,-0.055,-0.075,-0.085,-0.09,-0.095,-0.115,-0.14,-0.145,-0.165,-0.185,-0.19,-0.2,-0.205,-0.195,-0.215,-0.21,-0.22,-0.23,-0.235,-0.23,-0.23,-0.215,-0.215,-0.2,-0.205,-0.22,-0.215,-0.22,-0.21,-0.215,-0.195,-0.195,-0.195,-0.175,-0.185,-0.205,-0.225,-0.265,-0.31,-0.375,-0.42,-0.435,-0.35,-0.19,0.055,0.385,0.745,1.08,1.365,1.53,1.525,1.27,0.835,0.345,-0.05,-0.29,-0.38,-0.365,-0.315,-0.295,-0.265,-0.27,-0.29,-0.315,-0.335,-0.335,-0.32,-0.295,-0.275,-0.245,-0.24,-0.24,-0.25,-0.265,-0.27,-0.29,-0.285,-0.285,-0.29,-0.265,-0.265,-0.25,-0.25,-0.26,-0.26,-0.285,-0.305,-0.31,-0.315,-0.305,-0.28,-0.27,-0.25,-0.235,-0.25,-0.255,-0.26,-0.265,-0.265,-0.27,-0.265,-0.27,-0.27,-0.28,-0.275,-0.26,-0.265,-0.26,-0.26,-0.25,-0.25,-0.255,-0.255,-0.26,-0.265,-0.26,-0.26,-0.25,-0.25,-0.24,-0.24,-0.23,-0.225,-0.24,-0.235,-0.255,-0.23,-0.225,-0.23,-0.225,-0.22,-0.205,-0.175,-0.175,-0.195,-0.205,-0.195,-0.195,-0.18,-0.16,-0.16,-0.15,-0.15,-0.145,-0.16,-0.16,-0.16,-0.16,-0.14,-0.14,-0.12,-0.105,-0.095,-0.09,-0.085,-0.08,-0.08,-0.07,-0.075,-0.075,-0.065,-0.055,-0.045,-0.02,-0.005,0.01,0.005,0.015,0.025,0.03,0.04,0.045,0.045,0.05,0.06,0.07,0.075,0.11,0.115,0.125,0.125,0.14,0.135,0.135,0.145,0.15,0.165,0.175,0.19,0.21,0.21,0.23,0.225,0.235,0.235,0.235,0.245,0.25,0.255,0.265,0.26,0.255,0.27,0.275,0.255,0.245,0.235,0.215,0.205,0.19,0.185,0.17,0.165,0.15,0.135,0.125,0.105,0.08,0.06,0.04,0.025,0.01,-0.005,-0.01,-0.02,-0.02,-0.035,-0.05,-0.06,-0.065,-0.085,-0.095,-0.1,-0.12,-0.115,-0.11,-0.11
0.0,231.0,-0.21,-0.205,-0.21,-0.215,-0.215,-0.2,-0.195,-0.18,-0.18,-0.18,-0.175,-0.195,-0.185,-0.195,-0.195,-0.19,-0.185,-0.185,-0.175,-0.175,-0.17,-0.17,-0.175,-0.17,-0.185,-0.18,-0.185,-0.185,-0.175,-0.18,-0.175,-0.16,-0.16,-0.175,-0.18,-0.175,-0.17,-0.18,-0.18,-0.18,-0.165,-0.155,-0.13,-0.125,-0.125,-0.13,-0.105,-0.11,-0.12,-0.115,-0.11,-0.09,-0.07,-0.05,-0.035,-0.005,0.03,0.03,0.03,0.015,-0.02,-0.045,-0.05,-0.05,-0.065,-0.075,-0.07,-0.08,-0.095,-0.115,-0.14,-0.16,-0.17,-0.19,-0.2,-0.21,-0.205,-0.2,-0.19,-0.185,-0.195,-0.2,-0.205,-0.21,-0.23,-0.225,-0.215,-0.215,-0.22,-0.215,-0.215,-0.205,-0.21,-0.205,-0.205,-0.21,-0.21,-0.23,-0.245,-0.25,-0.28,-0.31,-0.36,-0.425,-0.46,-0.425,-0.305,-0.065,0.26,0.635,1.025,1.38,1.625,1.7,1.54,1.185,0.72,0.29,-0.01,-0.165,-0.205,-0.185,-0.155,-0.125,-0.115,-0.14,-0.18,-0.21,-0.25,-0.26,-0.265,-0.275,-0.275,-0.285,-0.295,-0.305,-0.31,-0.31,-0.305,-0.31,-0.31,-0.31,-0.315,-0.315,-0.32,-0.325,-0.33,-0.335,-0.325,-0.32,-0.305,-0.295,-0.295,-0.3,-0.305,-0.32,-0.32,-0.32,-0.32,-0.32,-0.31,-0.305,-0.295,-0.3,-0.29,-0.295,-0.285,-0.29,-0.295,-0.305,-0.31,-0.3,-0.295,-0.28,-0.27,-0.26,-0.265,-0.27,-0.27,-0.265,-0.275,-0.275,-0.275,-0.28,-0.275,-0.255,-0.25,-0.245,-0.235,-0.235,-0.23,-0.23,-0.225,-0.235,-0.235,-0.225,-0.225,-0.21,-0.2,-0.185,-0.18,-0.175,-0.18,-0.165,-0.175,-0.175,-0.165,-0.165,-0.15,-0.14,-0.12,-0.115,-0.11,-0.105,-0.11,-0.115,-0.115,-0.1,-0.09,-0.08,-0.065,-0.05,-0.025,-0.025,-0.015,-0.005,0.0,0.005,0.015,0.01,0.015,0.015,0.02,0.035,0.055,0.07,0.07,0.085,0.09,0.09,0.095,0.095,0.1,0.105,0.105,0.13,0.125,0.15,0.155,0.16,0.165,0.155,0.15,0.155,0.155,0.145,0.15,0.155,0.15,0.14,0.145,0.12,0.105,0.095,0.09,0.065,0.065,0.045,0.035,0.02,0.01,0.01,-0.01,-0.025,-0.04,-0.05,-0.065,-0.075,-0.09,-0.105,-0.125,-0.13,-0.12,-0.12,-0.145,-0.13,-0.135,-0.15,-0.15,-0.15,-0.15,-0.155,-0.155,-0.15,-0.15,-0.14,-0.15,-0.15,-0.135,-0.15
0.0,231.0,-0.21,-0.19,-0.21,-0.205,-0.205,-0.21,-0.2,-0.205,-0.2,-0.21,-0.19,-0.18,-0.175,-0.195,-0.19,-0.19,-0.19,-0.2,-0.21,-0.21,-0.2,-0.2,-0.185,-0.18,-0.18,-0.19,-0.2,-0.2,-0.2,-0.205,-0.2,-0.205,-0.2,-0.19,-0.185,-0.195,-0.19,-0.185,-0.19,-0.185,-0.175,-0.18,-0.18,-0.18,-0.165,-0.16,-0.145,-0.135,-0.125,-0.11,-0.11,-0.115,-0.1,-0.1,-0.085,-0.05,-0.03,-0.015,0.0,0.015,0.01,-0.01,-0.025,-0.035,-0.055,-0.065,-0.08,-0.105,-0.11,-0.125,-0.135,-0.14,-0.15,-0.175,-0.185,-0.195,-0.21,-0.225,-0.225,-0.23,-0.225,-0.215,-0.23,-0.215,-0.21,-0.22,-0.215,-0.23,-0.225,-0.225,-0.245,-0.24,-0.23,-0.225,-0.225,-0.215,-0.215,-0.215,-0.22,-0.245,-0.25,-0.3,-0.365,-0.41,-0.46,-0.435,-0.325,-0.085,0.235,0.605,0.995,1.32,1.55,1.625,1.485,1.14,0.675,0.245,-0.06,-0.21,-0.255,-0.24,-0.205,-0.195,-0.19,-0.205,-0.235,-0.27,-0.29,-0.295,-0.295,-0.27,-0.255,-0.265,-0.26,-0.28,-0.295,-0.33,-0.33,-0.32,-0.315,-0.31,-0.315,-0.295,-0.305,-0.3,-0.31,-0.32,-0.32,-0.325,-0.315,-0.325,-0.34,-0.315,-0.31,-0.295,-0.305,-0.31,-0.3,-0.31,-0.315,-0.315,-0.315,-0.305,-0.31,-0.305,-0.305,-0.305,-0.305,-0.3,-0.295,-0.31,-0.305,-0.305,-0.31,-0.32,-0.305,-0.295,-0.3,-0.29,-0.29,-0.285,-0.29,-0.29,-0.295,-0.295,-0.295,-0.28,-0.285,-0.27,-0.265,-0.255,-0.25,-0.255,-0.245,-0.255,-0.26,-0.26,-0.245,-0.245,-0.24,-0.23,-0.23,-0.22,-0.215,-0.23,-0.21,-0.21,-0.22,-0.21,-0.21,-0.205,-0.19,-0.185,-0.175,-0.155,-0.165,-0.15,-0.155,-0.155,-0.16,-0.155,-0.155,-0.145,-0.14,-0.135,-0.12,-0.11,-0.105,-0.09,-0.085,-0.075,-0.08,-0.065,-0.075,-0.065,-0.06,-0.035,-0.015,0.005,-0.005,0.015,0.025,0.035,0.04,0.045,0.035,0.06,0.065,0.095,0.1,0.12,0.13,0.145,0.15,0.15,0.155,0.16,0.15,0.16,0.16,0.17,0.17,0.17,0.17,0.17,0.155,0.15,0.145,0.12,0.105,0.095,0.09,0.085,0.07,0.06,0.045,0.02,0.01,-0.01,-0.045,-0.06,-0.075,-0.075,-0.085,-0.095,-0.1,-0.1,-0.11,-0.115,-0.12,-0.135,-0.145,-0.16,-0.16,-0.155,-0.165,-0.16,-0.155,-0.155
0.0,231.0,-0.2,-0.195,-0.215,-0.22,-0.21,-0.2,-0.2,-0.19,-0.19,-0.185,-0.185,-0.2,-0.21,-0.22,-0.23,-0.24,-0.23,-0.21,-0.205,-0.195,-0.175,-0.19,-0.19,-0.2,-0.195,-0.21,-0.215,-0.225,-0.22,-0.18,-0.185,-0.18,-0.175,-0.18,-0.185,-0.19,-0.185,-0.195,-0.2,-0.195,-0.2,-0.195,-0.165,-0.16,-0.145,-0.135,-0.145,-0.135,-0.155,-0.16,-0.155,-0.145,-0.115,-0.08,-0.05,-0.02,0.0,0.0,0.01,-0.01,-0.025,-0.05,-0.07,-0.09,-0.085,-0.095,-0.105,-0.11,-0.13,-0.135,-0.145,-0.165,-0.185,-0.2,-0.205,-0.22,-0.215,-0.21,-0.22,-0.205,-0.225,-0.225,-0.225,-0.235,-0.23,-0.235,-0.255,-0.24,-0.255,-0.25,-0.25,-0.245,-0.24,-0.25,-0.23,-0.245,-0.25,-0.255,-0.255,-0.255,-0.27,-0.31,-0.365,-0.425,-0.445,-0.4,-0.25,-0.005,0.31,0.67,1.04,1.375,1.58,1.605,1.425,1.055,0.575,0.16,-0.115,-0.245,-0.27,-0.25,-0.22,-0.195,-0.18,-0.19,-0.23,-0.27,-0.28,-0.3,-0.29,-0.295,-0.295,-0.295,-0.31,-0.33,-0.335,-0.335,-0.34,-0.335,-0.335,-0.34,-0.34,-0.35,-0.36,-0.365,-0.365,-0.355,-0.35,-0.345,-0.335,-0.33,-0.325,-0.345,-0.345,-0.35,-0.34,-0.35,-0.335,-0.33,-0.33,-0.32,-0.33,-0.325,-0.325,-0.32,-0.32,-0.32,-0.33,-0.335,-0.35,-0.345,-0.34,-0.33,-0.31,-0.285,-0.285,-0.29,-0.3,-0.3,-0.315,-0.325,-0.335,-0.31,-0.305,-0.29,-0.275,-0.265,-0.26,-0.265,-0.265,-0.28,-0.285,-0.295,-0.28,-0.28,-0.27,-0.255,-0.24,-0.22,-0.21,-0.21,-0.205,-0.22,-0.22,-0.22,-0.23,-0.225,-0.22,-0.2,-0.2,-0.185,-0.175,-0.175,-0.16,-0.16,-0.165,-0.16,-0.16,-0.155,-0.14,-0.12,-0.105,-0.105,-0.1,-0.105,-0.095,-0.08,-0.08,-0.07,-0.055,-0.065,-0.05,-0.04,-0.025,-0.015,0.005,0.015,0.035,0.04,0.05,0.055,0.055,0.06,0.065,0.07,0.08,0.09,0.08,0.09,0.105,0.115,0.14,0.145,0.155,0.15,0.145,0.145,0.155,0.165,0.185,0.18,0.185,0.17,0.15,0.13,0.11,0.095,0.1,0.11,0.105,0.11,0.1,0.085,0.055,0.015,0.015,0.0,-0.02,-0.04,-0.04,-0.04,-0.035,-0.055,-0.065,-0.085,-0.095,-0.11,-0.13,-0.15,-0.155,-0.17,-0.165,-0.165,-0.18,-0.175,-0.175,-0.185,-0.185,-0.185
0.0,231.0,-0.255,-0.255,-0.245,-0.255,-0.265,-0.26,-0.27,-0.26,-0.255,-0.265,-0.26,-0.26,-0.255,-0.25,-0.26,-0.265,-0.275,-0.265,-0.265,-0.27,-0.275,-0.27,-0.265,-0.25,-0.245,-0.25,-0.25,-0.25,-0.265,-0.26,-0.265,-0.255,-0.26,-0.26,-0.26,-0.26,-0.24,-0.24,-0.235,-0.235,-0.24,-0.235,-0.25,-0.23,-0.22,-0.245,-0.21,-0.19,-0.18,-0.165,-0.165,-0.17,-0.16,-0.155,-0.14,-0.13,-0.105,-0.08,-0.06,-0.04,-0.045,-0.045,-0.045,-0.07,-0.085,-0.095,-0.11,-0.125,-0.14,-0.145,-0.145,-0.155,-0.17,-0.195,-0.215,-0.225,-0.25,-0.275,-0.26,-0.27,-0.27,-0.26,-0.26,-0.26,-0.255,-0.265,-0.25,-0.265,-0.27,-0.285,-0.285,-0.28,-0.295,-0.275,-0.265,-0.26,-0.255,-0.255,-0.25,-0.265,-0.275,-0.31,-0.35,-0.415,-0.485,-0.51,-0.44,-0.26,0.055,0.45,0.885,1.275,1.535,1.56,1.315,0.87,0.375,-0.015,-0.245,-0.335,-0.345,-0.3,-0.265,-0.245,-0.25,-0.29,-0.315,-0.325,-0.345,-0.345,-0.35,-0.34,-0.34,-0.36,-0.36,-0.365,-0.36,-0.37,-0.37,-0.385,-0.38,-0.37,-0.365,-0.36,-0.35,-0.35,-0.35,-0.35,-0.37,-0.385,-0.39,-0.37,-0.365,-0.365,-0.355,-0.35,-0.34,-0.34,-0.335,-0.34,-0.35,-0.35,-0.365,-0.375,-0.355,-0.34,-0.345,-0.33,-0.325,-0.32,-0.32,-0.32,-0.325,-0.33,-0.34,-0.33,-0.315,-0.32,-0.305,-0.295,-0.28,-0.295,-0.28,-0.285,-0.285,-0.285,-0.295,-0.29,-0.28,-0.275,-0.26,-0.24,-0.255,-0.235,-0.24,-0.24,-0.24,-0.25,-0.255,-0.235,-0.24,-0.23,-0.215,-0.205,-0.195,-0.195,-0.185,-0.195,-0.2,-0.19,-0.185,-0.175,-0.17,-0.165,-0.155,-0.16,-0.135,-0.135,-0.13,-0.13,-0.115,-0.11,-0.105,-0.095,-0.09,-0.075,-0.06,-0.05,-0.035,-0.04,-0.02,-0.01,-0.01,-0.005,-0.005,0.005,0.02,0.035,0.05,0.06,0.085,0.095,0.105,0.11,0.11,0.115,0.105,0.12,0.13,0.135,0.145,0.15,0.16,0.15,0.15,0.14,0.135,0.125,0.11,0.1,0.105,0.095,0.095,0.095,0.08,0.075,0.055,0.035,0.015,-0.005,-0.025,-0.04,-0.06,-0.065,-0.08,-0.08,-0.09,-0.1,-0.11,-0.115,-0.12,-0.135,-0.155,-0.16,-0.175,-0.17,-0.175,-0.155,-0.15,-0.165,-0.165,-0.175,-0.17,-0.195,-0.21,-0.21,-0.2,-0.195,-0.175,-0.195
0.0,231.0,-0.255,-0.25,-0.25,-0.235,-0.225,-0.22,-0.215,-0.23,-0.235,-0.235,-0.24,-0.255,-0.255,-0.25,-0.235,-0.245,-0.245,-0.255,-0.245,-0.245,-0.25,-0.235,-0.24,-0.225,-0.225,-0.215,-0.22,-0.225,-0.225,-0.235,-0.24,-0.23,-0.235,-0.225,-0.22,-0.21,-0.225,-0.22,-0.22,-0.215,-0.21,-0.205,-0.175,-0.17,-0.165,-0.155,-0.145,-0.16,-0.155,-0.14,-0.145,-0.145,-0.135,-0.115,-0.09,-0.06,-0.03,-0.015,-0.01,-0.015,-0.04,-0.055,-0.07,-0.07,-0.08,-0.09,-0.085,-0.105,-0.115,-0.125,-0.16,-0.17,-0.185,-0.22,-0.225,-0.235,-0.23,-0.225,-0.22,-0.22,-0.22,-0.23,-0.24,-0.24,-0.25,-0.255,-0.255,-0.245,-0.245,-0.24,-0.225,-0.225,-0.225,-0.23,-0.24,-0.25,-0.245,-0.265,-0.265,-0.245,-0.275,-0.305,-0.35,-0.415,-0.425,-0.375,-0.225,0.03,0.35,0.715,1.085,1.37,1.525,1.495,1.225,0.785,0.29,-0.125,-0.37,-0.46,-0.455,-0.425,-0.375,-0.385,-0.375,-0.39,-0.395,-0.385,-0.38,-0.365,-0.345,-0.325,-0.325,-0.33,-0.32,-0.325,-0.315,-0.335,-0.32,-0.33,-0.315,-0.325,-0.335,-0.335,-0.34,-0.335,-0.34,-0.345,-0.34,-0.34,-0.325,-0.32,-0.33,-0.33,-0.34,-0.345,-0.34,-0.35,-0.35,-0.33,-0.33,-0.325,-0.315,-0.31,-0.31,-0.33,-0.31,-0.33,-0.335,-0.34,-0.33,-0.33,-0.32,-0.31,-0.315,-0.3,-0.31,-0.315,-0.305,-0.31,-0.32,-0.325,-0.31,-0.32,-0.305,-0.29,-0.285,-0.275,-0.275,-0.285,-0.285,-0.29,-0.295,-0.285,-0.285,-0.275,-0.265,-0.255,-0.25,-0.24,-0.245,-0.25,-0.245,-0.24,-0.245,-0.245,-0.245,-0.235,-0.225,-0.21,-0.2,-0.2,-0.19,-0.2,-0.19,-0.195,-0.185,-0.18,-0.175,-0.17,-0.165,-0.15,-0.135,-0.125,-0.115,-0.12,-0.11,-0.105,-0.095,-0.1,-0.085,-0.055,-0.045,-0.03,-0.01,0.005,0.01,0.03,0.035,0.045,0.04,0.05,0.065,0.08,0.095,0.115,0.14,0.145,0.155,0.15,0.15,0.16,0.175,0.175,0.165,0.18,0.195,0.195,0.205,0.19,0.185,0.175,0.175,0.16,0.15,0.135,0.125,0.12,0.12,0.11,0.105,0.095,0.08,0.075,0.05,0.025,0.005,-0.025,-0.045,-0.05,-0.055,-0.06,-0.06,-0.07,-0.085,-0.1,-0.115,-0.125,-0.14,-0.155,-0.155,-0.155,-0.16,-0.16,-0.155,-0.155,-0.16,-0.16,-0.165,-0.18
0.0,231.0,-0.07,-0.07,-0.075,-0.085,-0.075,-0.05,-0.045,-0.035,-0.035,-0.045,-0.05,-0.06,-0.06,-0.07,-0.075,-0.06,-0.05,-0.045,-0.04,-0.035,-0.035,-0.045,-0.04,-0.04,-0.045,-0.05,-0.045,-0.05,-0.05,-0.045,-0.04,-0.035,-0.035,-0.035,-0.04,-0.045,-0.055,-0.055,-0.05,-0.05,-0.035,-0.03,-0.01,-0.01,0.0,0.01,0.015,0.015,0.01,0.02,0.02,0.035,0.055,0.075,0.105,0.125,0.155,0.16,0.165,0.145,0.14,0.125,0.115,0.095,0.1,0.095,0.085,0.09,0.07,0.055,0.02,0.0,-0.02,-0.04,-0.055,-0.075,-0.075,-0.055,-0.06,-0.055,-0.055,-0.06,-0.06,-0.075,-0.08,-0.085,-0.09,-0.075,-0.075,-0.07,-0.06,-0.06,-0.06,-0.065,-0.07,-0.065,-0.07,-0.08,-0.1,-0.095,-0.115,-0.15,-0.2,-0.265,-0.315,-0.275,-0.155,0.085,0.415,0.805,1.205,1.535,1.745,1.755,1.525,1.095,0.62,0.225,-0.02,-0.125,-0.145,-0.135,-0.12,-0.11,-0.11,-0.115,-0.135,-0.155,-0.145,-0.135,-0.14,-0.125,-0.135,-0.145,-0.15,-0.16,-0.165,-0.155,-0.17,-0.175,-0.165,-0.16,-0.16,-0.185,-0.18,-0.18,-0.18,-0.185,-0.185,-0.16,-0.155,-0.155,-0.16,-0.15,-0.16,-0.17,-0.175,-0.175,-0.17,-0.16,-0.165,-0.155,-0.135,-0.14,-0.145,-0.14,-0.145,-0.14,-0.145,-0.155,-0.145,-0.15,-0.14,-0.13,-0.135,-0.135,-0.125,-0.12,-0.13,-0.115,-0.125,-0.135,-0.14,-0.125,-0.115,-0.11,-0.09,-0.095,-0.1,-0.095,-0.085,-0.09,-0.085,-0.095,-0.095,-0.08,-0.07,-0.055,-0.04,-0.04,-0.03,-0.04,-0.04,-0.04,-0.04,-0.045,-0.025,-0.025,-0.015,0.015,0.02,0.02,0.02,0.03,0.025,0.03,0.035,0.045,0.06,0.06,0.08,0.095,0.11,0.125,0.14,0.15,0.155,0.18,0.19,0.185,0.21,0.22,0.25,0.265,0.295,0.32,0.32,0.315,0.335,0.35,0.355,0.355,0.37,0.395,0.39,0.41,0.435,0.44,0.44,0.44,0.435,0.43,0.42,0.405,0.41,0.405,0.41,0.41,0.41,0.4,0.385,0.38,0.36,0.35,0.325,0.315,0.305,0.275,0.275,0.265,0.24,0.23,0.21,0.19,0.175,0.155,0.125,0.12,0.12,0.095,0.105,0.095,0.09,0.08,0.085,0.07,0.065,0.06,0.05,0.04,0.035,0.04,0.035,0.01,0.04,0.015,0.025,0.005,0.015,0.005
0.0,231.0,-0.08,-0.075,-0.075,-0.07,-0.07,-0.07,-0.075,-0.065,-0.07,-0.06,-0.06,-0.075,-0.075,-0.08,-0.085,-0.09,-0.08,-0.075,-0.065,-0.055,-0.055,-0.05,-0.05,-0.065,-0.08,-0.075,-0.07,-0.085,-0.1,-0.075,-0.085,-0.07,-0.065,-0.06,-0.055,-0.07,-0.07,-0.08,-0.08,-0.075,-0.06,-0.045,-0.05,-0.04,-0.035,-0.025,-0.01,-0.005,-0.005,-0.01,0.005,-0.005,-0.005,0.0,0.0,0.03,0.04,0.06,0.105,0.115,0.135,0.14,0.14,0.135,0.125,0.105,0.095,0.095,0.085,0.07,0.06,0.03,0.015,0.0,-0.03,-0.045,-0.06,-0.08,-0.095,-0.095,-0.1,-0.095,-0.065,-0.065,-0.055,-0.06,-0.075,-0.085,-0.1,-0.105,-0.1,-0.12,-0.11,-0.075,-0.075,-0.075,-0.07,-0.075,-0.08,-0.1,-0.12,-0.155,-0.215,-0.26,-0.3,-0.305,-0.205,-0.005,0.315,0.68,1.095,1.46,1.73,1.815,1.67,1.29,0.79,0.31,-0.02,-0.205,-0.24,-0.205,-0.155,-0.12,-0.11,-0.12,-0.16,-0.185,-0.195,-0.18,-0.15,-0.125,-0.11,-0.105,-0.12,-0.155,-0.175,-0.185,-0.195,-0.185,-0.185,-0.18,-0.16,-0.145,-0.14,-0.145,-0.13,-0.155,-0.155,-0.16,-0.165,-0.175,-0.17,-0.175,-0.17,-0.165,-0.16,-0.155,-0.16,-0.16,-0.16,-0.165,-0.17,-0.16,-0.15,-0.14,-0.13,-0.135,-0.125,-0.135,-0.14,-0.15,-0.15,-0.15,-0.145,-0.135,-0.13,-0.125,-0.125,-0.125,-0.12,-0.13,-0.135,-0.12,-0.12,-0.115,-0.12,-0.1,-0.1,-0.085,-0.08,-0.08,-0.075,-0.085,-0.08,-0.085,-0.08,-0.09,-0.08,-0.065,-0.055,-0.045,-0.025,-0.03,-0.025,-0.025,-0.025,-0.05,-0.06,-0.055,-0.055,-0.03,-0.01,0.005,0.01,0.015,0.03,0.035,0.035,0.035,0.035,0.03,0.04,0.045,0.055,0.08,0.1,0.115,0.115,0.115,0.105,0.105,0.095,0.095,0.105,0.115,0.145,0.175,0.195,0.205,0.225,0.225,0.23,0.23,0.265,0.285,0.3,0.3,0.32,0.33,0.355,0.36,0.39,0.41,0.43,0.43,0.44,0.445,0.46,0.47,0.485,0.49,0.51,0.52,0.515,0.52,0.52,0.51,0.51,0.495,0.49,0.465,0.465,0.47,0.475,0.465,0.47,0.445,0.41,0.395,0.375,0.365,0.35,0.35,0.34,0.325,0.3,0.275,0.25,0.22,0.2,0.18,0.165,0.155,0.13,0.115,0.105,0.09,0.095,0.085
0.0,231.0,-0.075,-0.065,-0.075,-0.08,-0.085,-0.075,-0.08,-0.07,-0.045,-0.05,-0.06,-0.055,-0.07,-0.075,-0.065,-0.08,-0.075,-0.075,-0.075,-0.055,-0.055,-0.05,-0.05,-0.055,-0.055,-0.055,-0.065,-0.07,-0.075,-0.065,-0.05,-0.05,-0.04,-0.04,-0.04,-0.035,-0.05,-0.045,-0.055,-0.05,-0.04,-0.04,-0.035,-0.01,-0.01,0.005,0.005,0.02,0.015,0.02,0.02,0.025,0.035,0.045,0.07,0.095,0.12,0.14,0.155,0.155,0.145,0.125,0.115,0.1,0.085,0.095,0.09,0.085,0.065,0.065,0.03,0.02,0.0,-0.03,-0.03,-0.055,-0.065,-0.075,-0.065,-0.06,-0.055,-0.05,-0.055,-0.06,-0.07,-0.085,-0.085,-0.095,-0.095,-0.09,-0.09,-0.07,-0.06,-0.05,-0.05,-0.055,-0.06,-0.065,-0.085,-0.1,-0.125,-0.17,-0.23,-0.29,-0.31,-0.255,-0.115,0.135,0.48,0.865,1.25,1.58,1.8,1.82,1.61,1.2,0.73,0.33,0.075,-0.05,-0.065,-0.045,-0.03,-0.005,-0.015,-0.04,-0.075,-0.11,-0.115,-0.11,-0.115,-0.105,-0.1,-0.115,-0.13,-0.145,-0.155,-0.155,-0.155,-0.155,-0.16,-0.155,-0.155,-0.15,-0.16,-0.16,-0.16,-0.175,-0.18,-0.175,-0.175,-0.17,-0.155,-0.15,-0.145,-0.14,-0.155,-0.155,-0.18,-0.165,-0.16,-0.16,-0.155,-0.145,-0.14,-0.14,-0.155,-0.145,-0.16,-0.145,-0.15,-0.15,-0.155,-0.14,-0.14,-0.12,-0.125,-0.11,-0.1,-0.105,-0.12,-0.125,-0.125,-0.11,-0.105,-0.095,-0.1,-0.09,-0.075,-0.07,-0.07,-0.065,-0.07,-0.07,-0.075,-0.075,-0.075,-0.065,-0.055,-0.045,-0.03,-0.02,-0.015,-0.01,-0.01,-0.02,-0.005,-0.02,-0.01,0.0,0.01,0.02,0.03,0.04,0.04,0.05,0.045,0.04,0.04,0.04,0.045,0.055,0.075,0.095,0.1,0.12,0.115,0.12,0.12,0.155,0.145,0.155,0.18,0.19,0.21,0.23,0.235,0.25,0.28,0.285,0.295,0.305,0.32,0.325,0.335,0.335,0.35,0.37,0.375,0.395,0.41,0.41,0.415,0.415,0.415,0.41,0.41,0.41,0.41,0.405,0.41,0.42,0.42,0.39,0.39,0.385,0.375,0.345,0.34,0.33,0.315,0.3,0.29,0.285,0.265,0.25,0.235,0.21,0.195,0.175,0.175,0.14,0.135,0.14,0.135,0.13,0.125,0.115,0.105,0.095,0.08,0.075,0.07,0.055,0.06,0.07,0.07,0.08,0.065,0.07
0.0,231.0,-0.055,-0.04,-0.035,-0.035,-0.02,-0.015,-0.025,-0.055,-0.06,-0.085,-0.07,-0.06,-0.045,-0.035,-0.025,-0.03,-0.05,-0.055,-0.06,-0.065,-0.055,-0.045,-0.045,-0.04,-0.04,-0.05,-0.055,-0.045,-0.045,-0.04,-0.03,-0.035,-0.03,-0.035,-0.04,-0.04,-0.04,-0.035,-0.04,-0.025,-0.015,-0.015,-0.02,-0.03,-0.025,-0.02,-0.005,0.015,0.03,0.045,0.055,0.055,0.035,0.05,0.055,0.08,0.105,0.13,0.15,0.16,0.165,0.17,0.155,0.135,0.125,0.1,0.085,0.08,0.05,0.04,0.035,0.02,0.015,0.0,-0.015,-0.03,-0.03,-0.045,-0.055,-0.065,-0.065,-0.07,-0.065,-0.065,-0.07,-0.06,-0.06,-0.06,-0.055,-0.065,-0.05,-0.065,-0.075,-0.07,-0.08,-0.055,-0.05,-0.035,-0.04,-0.04,-0.075,-0.12,-0.175,-0.24,-0.28,-0.25,-0.115,0.13,0.485,0.89,1.295,1.63,1.825,1.785,1.495,0.995,0.455,0.015,-0.23,-0.32,-0.305,-0.245,-0.195,-0.165,-0.135,-0.16,-0.17,-0.18,-0.185,-0.165,-0.15,-0.125,-0.12,-0.115,-0.14,-0.13,-0.145,-0.155,-0.165,-0.17,-0.165,-0.165,-0.155,-0.145,-0.155,-0.135,-0.135,-0.135,-0.145,-0.145,-0.15,-0.15,-0.14,-0.145,-0.14,-0.135,-0.115,-0.13,-0.13,-0.125,-0.14,-0.125,-0.14,-0.145,-0.14,-0.13,-0.125,-0.115,-0.125,-0.105,-0.095,-0.095,-0.095,-0.1,-0.105,-0.115,-0.105,-0.115,-0.09,-0.095,-0.085,-0.075,-0.065,-0.075,-0.07,-0.075,-0.09,-0.09,-0.075,-0.065,-0.06,-0.055,-0.04,-0.035,-0.02,-0.02,-0.015,-0.01,-0.015,-0.015,-0.02,-0.015,-0.01,0.0,0.01,0.015,0.02,0.01,0.02,0.03,0.025,0.015,0.035,0.035,0.04,0.04,0.065,0.085,0.08,0.09,0.09,0.075,0.095,0.085,0.105,0.125,0.13,0.145,0.16,0.175,0.195,0.19,0.225,0.235,0.245,0.245,0.26,0.275,0.29,0.315,0.33,0.355,0.375,0.395,0.4,0.395,0.4,0.41,0.43,0.445,0.45,0.47,0.48,0.495,0.5,0.5,0.515,0.51,0.505,0.5,0.495,0.495,0.495,0.51,0.5,0.5,0.5,0.49,0.47,0.455,0.435,0.4,0.395,0.385,0.375,0.36,0.345,0.35,0.32,0.315,0.295,0.27,0.26,0.23,0.215,0.19,0.19,0.17,0.155,0.155,0.14,0.13,0.125,0.11,0.095,0.075,0.06,0.065,0.06,0.06
0.0,231.0,-0.085,-0.09,-0.095,-0.1,-0.09,-0.09,-0.085,-0.08,-0.07,-0.06,-0.07,-0.065,-0.075,-0.08,-0.08,-0.085,-0.09,-0.08,-0.095,-0.095,-0.075,-0.075,-0.075,-0.065,-0.075,-0.075,-0.075,-0.09,-0.085,-0.075,-0.075,-0.08,-0.055,-0.06,-0.065,-0.075,-0.08,-0.08,-0.065,-0.075,-0.075,-0.05,-0.045,-0.03,-0.015,0.01,-0.005,0.0,0.015,0.015,0.02,0.025,0.04,0.075,0.11,0.125,0.135,0.135,0.14,0.135,0.11,0.095,0.085,0.07,0.065,0.055,0.045,0.03,0.03,0.015,-0.01,-0.045,-0.055,-0.065,-0.075,-0.08,-0.09,-0.08,-0.075,-0.07,-0.07,-0.075,-0.075,-0.08,-0.085,-0.09,-0.095,-0.095,-0.085,-0.085,-0.085,-0.09,-0.07,-0.07,-0.06,-0.07,-0.065,-0.07,-0.1,-0.115,-0.13,-0.19,-0.25,-0.305,-0.33,-0.29,-0.165,0.09,0.43,0.81,1.205,1.555,1.815,1.905,1.775,1.435,0.98,0.53,0.21,0.03,-0.025,-0.005,0.035,0.07,0.075,0.055,0.005,-0.06,-0.095,-0.13,-0.12,-0.125,-0.125,-0.14,-0.145,-0.16,-0.17,-0.18,-0.18,-0.185,-0.17,-0.18,-0.185,-0.19,-0.195,-0.195,-0.205,-0.205,-0.205,-0.2,-0.195,-0.195,-0.19,-0.195,-0.195,-0.18,-0.18,-0.185,-0.18,-0.19,-0.19,-0.19,-0.19,-0.18,-0.17,-0.175,-0.17,-0.175,-0.19,-0.18,-0.185,-0.175,-0.175,-0.175,-0.165,-0.16,-0.165,-0.175,-0.16,-0.15,-0.15,-0.165,-0.155,-0.15,-0.145,-0.135,-0.135,-0.125,-0.11,-0.095,-0.11,-0.105,-0.11,-0.115,-0.125,-0.13,-0.125,-0.105,-0.095,-0.075,-0.065,-0.06,-0.055,-0.05,-0.06,-0.055,-0.055,-0.05,-0.05,-0.035,-0.01,-0.02,0.015,0.015,0.0,0.01,0.01,0.0,0.0,0.005,0.02,0.03,0.035,0.055,0.08,0.085,0.09,0.1,0.11,0.105,0.095,0.1,0.095,0.13,0.14,0.17,0.2,0.205,0.21,0.225,0.24,0.24,0.25,0.265,0.27,0.285,0.31,0.33,0.34,0.35,0.36,0.355,0.365,0.38,0.375,0.385,0.395,0.41,0.415,0.425,0.42,0.425,0.42,0.405,0.4,0.39,0.38,0.36,0.345,0.35,0.345,0.34,0.335,0.325,0.305,0.29,0.265,0.25,0.235,0.22,0.205,0.195,0.19,0.18,0.165,0.155,0.13,0.115,0.09,0.09,0.085,0.08,0.085,0.085,0.075,0.08,0.075,0.065,0.04,0.025
0.0,231.0,-0.095,-0.105,-0.095,-0.09,-0.075,-0.065,-0.08,-0.085,-0.085,-0.09,-0.09,-0.105,-0.095,-0.095,-0.1,-0.095,-0.075,-0.085,-0.07,-0.08,-0.085,-0.08,-0.09,-0.095,-0.085,-0.08,-0.085,-0.08,-0.075,-0.065,-0.07,-0.065,-0.065,-0.075,-0.08,-0.085,-0.07,-0.075,-0.07,-0.055,-0.055,-0.035,-0.04,-0.035,-0.035,-0.03,-0.035,-0.035,-0.03,-0.01,0.0,0.01,0.02,0.015,0.04,0.045,0.08,0.09,0.105,0.115,0.13,0.12,0.12,0.11,0.12,0.11,0.1,0.085,0.06,0.045,0.015,0.005,-0.015,-0.04,-0.04,-0.055,-0.055,-0.07,-0.075,-0.08,-0.085,-0.085,-0.1,-0.11,-0.1,-0.105,-0.1,-0.09,-0.085,-0.085,-0.08,-0.09,-0.095,-0.1,-0.095,-0.125,-0.105,-0.09,-0.095,-0.11,-0.115,-0.155,-0.205,-0.29,-0.34,-0.31,-0.2,0.04,0.41,0.835,1.265,1.61,1.815,1.76,1.45,0.965,0.46,0.1,-0.115,-0.19,-0.175,-0.135,-0.09,-0.07,-0.075,-0.095,-0.14,-0.155,-0.16,-0.17,-0.175,-0.18,-0.175,-0.185,-0.19,-0.185,-0.18,-0.18,-0.205,-0.19,-0.195,-0.21,-0.21,-0.21,-0.215,-0.21,-0.2,-0.19,-0.19,-0.19,-0.19,-0.195,-0.195,-0.2,-0.2,-0.21,-0.215,-0.2,-0.19,-0.185,-0.175,-0.18,-0.18,-0.18,-0.19,-0.185,-0.195,-0.2,-0.195,-0.19,-0.185,-0.185,-0.18,-0.17,-0.17,-0.165,-0.18,-0.17,-0.175,-0.175,-0.165,-0.16,-0.155,-0.145,-0.145,-0.125,-0.13,-0.13,-0.13,-0.13,-0.14,-0.14,-0.125,-0.125,-0.13,-0.115,-0.105,-0.09,-0.09,-0.08,-0.095,-0.1,-0.095,-0.1,-0.09,-0.08,-0.065,-0.055,-0.055,-0.05,-0.05,-0.035,-0.035,-0.05,-0.04,-0.045,-0.03,-0.02,-0.01,0.0,0.015,0.03,0.03,0.04,0.04,0.055,0.05,0.065,0.075,0.09,0.105,0.125,0.15,0.165,0.175,0.18,0.2,0.205,0.215,0.225,0.245,0.27,0.285,0.285,0.31,0.33,0.34,0.355,0.355,0.355,0.375,0.365,0.385,0.39,0.4,0.41,0.43,0.44,0.445,0.44,0.43,0.425,0.41,0.41,0.4,0.395,0.39,0.385,0.385,0.365,0.36,0.35,0.33,0.31,0.285,0.26,0.245,0.235,0.215,0.215,0.2,0.18,0.17,0.15,0.125,0.12,0.095,0.07,0.06,0.065,0.055,0.06,0.065,0.05,0.04,0.035,0.025,0.02,0.0,0.0
0.0,231.0,-0.135,-0.13,-0.135,-0.14,-0.135,-0.15,-0.155,-0.15,-0.14,-0.135,-0.13,-0.125,-0.145,-0.135,-0.14,-0.14,-0.145,-0.155,-0.16,-0.155,-0.14,-0.13,-0.135,-0.135,-0.13,-0.13,-0.135,-0.125,-0.13,-0.125,-0.11,-0.12,-0.105,-0.105,-0.12,-0.125,-0.115,-0.09,-0.085,-0.085,-0.085,-0.09,-0.085,-0.09,-0.08,-0.06,-0.055,-0.045,-0.045,-0.025,-0.015,-0.005,0.005,0.02,0.035,0.04,0.065,0.075,0.055,0.055,0.04,0.035,0.015,0.0,0.0,-0.015,-0.02,-0.045,-0.05,-0.075,-0.1,-0.135,-0.135,-0.16,-0.16,-0.16,-0.165,-0.15,-0.165,-0.16,-0.16,-0.17,-0.16,-0.145,-0.155,-0.16,-0.16,-0.17,-0.17,-0.18,-0.18,-0.185,-0.175,-0.18,-0.17,-0.145,-0.135,-0.135,-0.15,-0.19,-0.235,-0.305,-0.365,-0.405,-0.39,-0.285,-0.055,0.275,0.66,1.055,1.41,1.685,1.79,1.71,1.41,0.94,0.45,0.06,-0.155,-0.24,-0.24,-0.205,-0.17,-0.175,-0.175,-0.195,-0.225,-0.235,-0.24,-0.24,-0.215,-0.21,-0.195,-0.195,-0.21,-0.22,-0.245,-0.255,-0.255,-0.265,-0.26,-0.25,-0.235,-0.225,-0.215,-0.23,-0.24,-0.245,-0.26,-0.26,-0.26,-0.265,-0.26,-0.25,-0.245,-0.235,-0.225,-0.225,-0.235,-0.235,-0.245,-0.26,-0.265,-0.255,-0.24,-0.235,-0.22,-0.205,-0.205,-0.21,-0.23,-0.235,-0.25,-0.25,-0.245,-0.24,-0.22,-0.205,-0.195,-0.18,-0.17,-0.18,-0.2,-0.195,-0.2,-0.2,-0.2,-0.195,-0.175,-0.165,-0.165,-0.16,-0.17,-0.175,-0.16,-0.16,-0.15,-0.155,-0.155,-0.15,-0.13,-0.12,-0.12,-0.105,-0.105,-0.095,-0.105,-0.105,-0.125,-0.14,-0.13,-0.12,-0.1,-0.08,-0.065,-0.045,-0.04,-0.035,-0.03,-0.035,-0.04,-0.045,-0.045,-0.035,-0.02,-0.015,-0.005,0.0,-0.005,0.005,0.005,0.015,0.015,0.035,0.055,0.07,0.075,0.09,0.085,0.1,0.12,0.135,0.155,0.16,0.175,0.18,0.195,0.205,0.225,0.235,0.255,0.27,0.295,0.31,0.325,0.335,0.345,0.34,0.35,0.345,0.35,0.365,0.38,0.39,0.385,0.41,0.405,0.405,0.41,0.4,0.39,0.37,0.375,0.37,0.365,0.365,0.35,0.345,0.335,0.325,0.295,0.29,0.255,0.24,0.225,0.205,0.195,0.175,0.18,0.16,0.145,0.12,0.08,0.05,0.025,0.01,0.02,0.02,0.015,0.02
0.0,231.0,-0.215,-0.225,-0.21,-0.215,-0.21,-0.2,-0.2,-0.205,-0.18,-0.185,-0.19,-0.19,-0.2,-0.21,-0.205,-0.215,-0.215,-0.21,-0.215,-0.2,-0.19,-0.18,-0.19,-0.195,-0.2,-0.195,-0.2,-0.205,-0.205,-0.205,-0.195,-0.2,-0.185,-0.185,-0.175,-0.165,-0.175,-0.2,-0.19,-0.185,-0.185,-0.17,-0.16,-0.15,-0.13,-0.11,-0.105,-0.12,-0.11,-0.11,-0.095,-0.09,-0.065,-0.035,0.0,0.015,0.035,0.04,0.03,0.015,0.005,-0.02,-0.03,-0.05,-0.065,-0.07,-0.08,-0.105,-0.11,-0.11,-0.125,-0.145,-0.17,-0.175,-0.19,-0.2,-0.2,-0.215,-0.215,-0.205,-0.215,-0.2,-0.195,-0.2,-0.21,-0.21,-0.21,-0.215,-0.215,-0.215,-0.215,-0.205,-0.195,-0.195,-0.195,-0.2,-0.2,-0.215,-0.215,-0.255,-0.295,-0.355,-0.41,-0.455,-0.445,-0.32,-0.105,0.205,0.585,0.97,1.33,1.61,1.735,1.665,1.385,0.965,0.5,0.145,-0.07,-0.16,-0.165,-0.13,-0.115,-0.11,-0.125,-0.155,-0.185,-0.24,-0.255,-0.26,-0.26,-0.245,-0.245,-0.265,-0.27,-0.295,-0.305,-0.31,-0.31,-0.295,-0.3,-0.29,-0.295,-0.275,-0.285,-0.3,-0.29,-0.305,-0.31,-0.305,-0.3,-0.29,-0.29,-0.285,-0.285,-0.28,-0.275,-0.28,-0.31,-0.295,-0.295,-0.295,-0.28,-0.27,-0.265,-0.265,-0.255,-0.265,-0.27,-0.285,-0.27,-0.28,-0.285,-0.28,-0.275,-0.275,-0.26,-0.25,-0.245,-0.23,-0.24,-0.24,-0.245,-0.255,-0.25,-0.235,-0.225,-0.225,-0.22,-0.21,-0.2,-0.2,-0.195,-0.205,-0.205,-0.2,-0.195,-0.2,-0.185,-0.175,-0.165,-0.155,-0.15,-0.15,-0.14,-0.14,-0.14,-0.14,-0.135,-0.125,-0.12,-0.11,-0.1,-0.09,-0.085,-0.075,-0.075,-0.075,-0.075,-0.08,-0.07,-0.055,-0.055,-0.04,-0.025,-0.01,0.0,0.005,0.015,0.03,0.03,0.03,0.04,0.055,0.075,0.1,0.1,0.125,0.135,0.15,0.165,0.17,0.18,0.175,0.2,0.21,0.215,0.235,0.24,0.27,0.275,0.28,0.285,0.28,0.285,0.28,0.275,0.28,0.28,0.29,0.29,0.295,0.29,0.275,0.265,0.25,0.24,0.23,0.23,0.21,0.21,0.2,0.19,0.195,0.17,0.16,0.14,0.13,0.1,0.07,0.065,0.065,0.045,0.04,0.035,0.02,0.02,0.005,0.0,-0.015,-0.03,-0.045,-0.055,-0.055,-0.05,-0.06,-0.065,-0.065,-0.06,-0.06
0.0,231.0,-0.2,-0.195,-0.195,-0.19,-0.185,-0.175,-0.175,-0.175,-0.185,-0.185,-0.19,-0.195,-0.185,-0.175,-0.17,-0.165,-0.175,-0.17,-0.16,-0.17,-0.175,-0.185,-0.195,-0.2,-0.205,-0.195,-0.185,-0.185,-0.18,-0.17,-0.17,-0.17,-0.175,-0.17,-0.18,-0.18,-0.175,-0.165,-0.15,-0.145,-0.14,-0.145,-0.145,-0.145,-0.155,-0.16,-0.14,-0.125,-0.12,-0.105,-0.09,-0.07,-0.07,-0.055,-0.03,-0.01,-0.015,0.0,0.0,0.025,0.02,0.02,0.035,0.025,0.02,0.01,-0.005,-0.02,-0.04,-0.055,-0.09,-0.1,-0.11,-0.135,-0.14,-0.15,-0.155,-0.165,-0.16,-0.175,-0.165,-0.17,-0.165,-0.175,-0.185,-0.195,-0.19,-0.19,-0.185,-0.185,-0.18,-0.175,-0.18,-0.18,-0.185,-0.19,-0.18,-0.18,-0.17,-0.185,-0.2,-0.25,-0.305,-0.375,-0.405,-0.4,-0.29,-0.075,0.225,0.6,1.015,1.385,1.68,1.785,1.66,1.28,0.76,0.255,-0.12,-0.3,-0.35,-0.305,-0.255,-0.185,-0.17,-0.175,-0.205,-0.235,-0.245,-0.25,-0.23,-0.22,-0.205,-0.22,-0.225,-0.24,-0.25,-0.26,-0.255,-0.265,-0.275,-0.285,-0.285,-0.275,-0.28,-0.28,-0.29,-0.29,-0.275,-0.28,-0.265,-0.25,-0.245,-0.24,-0.255,-0.25,-0.25,-0.27,-0.27,-0.255,-0.26,-0.26,-0.24,-0.245,-0.245,-0.26,-0.265,-0.27,-0.265,-0.255,-0.255,-0.245,-0.23,-0.23,-0.25,-0.235,-0.235,-0.225,-0.23,-0.22,-0.215,-0.22,-0.205,-0.205,-0.19,-0.195,-0.215,-0.21,-0.22,-0.21,-0.21,-0.215,-0.21,-0.205,-0.185,-0.17,-0.16,-0.15,-0.155,-0.165,-0.155,-0.15,-0.14,-0.16,-0.15,-0.14,-0.125,-0.125,-0.125,-0.12,-0.11,-0.12,-0.105,-0.095,-0.115,-0.11,-0.1,-0.085,-0.075,-0.07,-0.04,-0.025,-0.01,-0.015,0.005,0.005,-0.015,-0.03,-0.025,-0.01,0.01,0.02,0.035,0.055,0.06,0.075,0.09,0.095,0.1,0.11,0.13,0.145,0.165,0.185,0.2,0.21,0.215,0.22,0.225,0.23,0.25,0.26,0.275,0.275,0.315,0.34,0.365,0.37,0.375,0.37,0.365,0.365,0.365,0.365,0.365,0.37,0.37,0.36,0.355,0.35,0.355,0.355,0.36,0.375,0.355,0.35,0.34,0.32,0.305,0.28,0.285,0.265,0.26,0.235,0.21,0.175,0.165,0.135,0.115,0.105,0.09,0.065,0.07,0.06,0.05,0.035,0.035,0.005,-0.01,-0.03
0.0,231.0,-0.285,-0.285,-0.27,-0.265,-0.26,-0.26,-0.25,-0.265,-0.27,-0.265,-0.27,-0.265,-0.27,-0.27,-0.27,-0.26,-0.265,-0.255,-0.24,-0.245,-0.245,-0.26,-0.255,-0.26,-0.275,-0.265,-0.255,-0.25,-0.25,-0.24,-0.24,-0.24,-0.24,-0.245,-0.26,-0.25,-0.255,-0.255,-0.24,-0.235,-0.23,-0.225,-0.21,-0.21,-0.2,-0.21,-0.195,-0.19,-0.19,-0.175,-0.17,-0.16,-0.15,-0.135,-0.125,-0.1,-0.085,-0.07,-0.045,-0.04,-0.04,-0.05,-0.035,-0.04,-0.04,-0.05,-0.06,-0.075,-0.09,-0.115,-0.13,-0.155,-0.18,-0.2,-0.21,-0.215,-0.225,-0.235,-0.23,-0.23,-0.22,-0.24,-0.235,-0.245,-0.245,-0.25,-0.24,-0.245,-0.24,-0.225,-0.23,-0.225,-0.22,-0.235,-0.24,-0.245,-0.26,-0.265,-0.265,-0.265,-0.285,-0.315,-0.375,-0.43,-0.47,-0.435,-0.265,0.02,0.385,0.82,1.245,1.575,1.72,1.63,1.28,0.785,0.3,-0.04,-0.225,-0.29,-0.265,-0.215,-0.18,-0.155,-0.17,-0.21,-0.245,-0.265,-0.3,-0.28,-0.295,-0.3,-0.315,-0.32,-0.315,-0.325,-0.34,-0.33,-0.335,-0.335,-0.33,-0.34,-0.345,-0.36,-0.355,-0.36,-0.36,-0.345,-0.345,-0.35,-0.365,-0.35,-0.345,-0.35,-0.37,-0.365,-0.365,-0.36,-0.355,-0.34,-0.34,-0.345,-0.35,-0.34,-0.345,-0.35,-0.345,-0.355,-0.36,-0.36,-0.345,-0.335,-0.325,-0.325,-0.315,-0.32,-0.325,-0.325,-0.34,-0.34,-0.345,-0.345,-0.33,-0.315,-0.305,-0.3,-0.305,-0.31,-0.31,-0.305,-0.295,-0.295,-0.295,-0.3,-0.29,-0.28,-0.28,-0.27,-0.26,-0.26,-0.25,-0.25,-0.245,-0.25,-0.26,-0.24,-0.235,-0.23,-0.22,-0.2,-0.2,-0.2,-0.195,-0.19,-0.185,-0.2,-0.19,-0.18,-0.17,-0.165,-0.155,-0.155,-0.14,-0.13,-0.13,-0.125,-0.115,-0.11,-0.11,-0.1,-0.085,-0.07,-0.055,-0.04,-0.02,-0.02,-0.005,0.015,0.015,0.01,0.015,0.03,0.045,0.075,0.085,0.095,0.12,0.135,0.145,0.135,0.14,0.16,0.16,0.175,0.2,0.2,0.205,0.225,0.225,0.22,0.23,0.22,0.215,0.215,0.205,0.205,0.205,0.215,0.22,0.21,0.21,0.195,0.185,0.16,0.16,0.14,0.12,0.11,0.105,0.09,0.08,0.065,0.055,0.03,0.015,0.005,-0.005,-0.025,-0.035,-0.06,-0.07,-0.085,-0.08,-0.085,-0.085,-0.105,-0.105,-0.11,-0.13,-0.145
0.0,231.0,-0.225,-0.225,-0.235,-0.25,-0.26,-0.26,-0.255,-0.25,-0.265,-0.245,-0.24,-0.235,-0.225,-0.235,-0.24,-0.245,-0.255,-0.255,-0.255,-0.26,-0.245,-0.225,-0.21,-0.21,-0.21,-0.215,-0.23,-0.25,-0.245,-0.25,-0.255,-0.255,-0.245,-0.24,-0.235,-0.24,-0.23,-0.225,-0.225,-0.205,-0.205,-0.21,-0.21,-0.205,-0.2,-0.185,-0.17,-0.165,-0.155,-0.145,-0.135,-0.13,-0.125,-0.115,-0.105,-0.075,-0.055,-0.03,-0.02,-0.015,-0.035,-0.045,-0.055,-0.08,-0.1,-0.115,-0.13,-0.135,-0.135,-0.135,-0.14,-0.17,-0.185,-0.215,-0.23,-0.245,-0.25,-0.26,-0.245,-0.235,-0.245,-0.225,-0.22,-0.24,-0.24,-0.245,-0.25,-0.25,-0.26,-0.27,-0.25,-0.245,-0.245,-0.24,-0.235,-0.23,-0.215,-0.225,-0.235,-0.255,-0.265,-0.295,-0.33,-0.385,-0.425,-0.42,-0.325,-0.135,0.16,0.545,0.95,1.305,1.565,1.635,1.44,0.995,0.46,-0.02,-0.345,-0.485,-0.495,-0.45,-0.39,-0.345,-0.32,-0.31,-0.325,-0.33,-0.34,-0.315,-0.31,-0.3,-0.305,-0.315,-0.33,-0.335,-0.35,-0.35,-0.345,-0.345,-0.345,-0.325,-0.315,-0.32,-0.325,-0.33,-0.335,-0.35,-0.345,-0.35,-0.365,-0.36,-0.345,-0.335,-0.32,-0.33,-0.33,-0.32,-0.34,-0.335,-0.345,-0.34,-0.345,-0.33,-0.325,-0.31,-0.31,-0.32,-0.31,-0.32,-0.315,-0.325,-0.325,-0.33,-0.33,-0.32,-0.305,-0.305,-0.3,-0.295,-0.295,-0.305,-0.295,-0.29,-0.295,-0.295,-0.3,-0.29,-0.275,-0.26,-0.25,-0.255,-0.245,-0.255,-0.25,-0.255,-0.255,-0.245,-0.245,-0.245,-0.23,-0.225,-0.21,-0.21,-0.21,-0.205,-0.205,-0.21,-0.205,-0.19,-0.19,-0.19,-0.18,-0.165,-0.155,-0.155,-0.16,-0.145,-0.14,-0.135,-0.13,-0.11,-0.11,-0.105,-0.09,-0.07,-0.055,-0.055,-0.03,-0.025,-0.02,-0.005,0.0,0.035,0.05,0.075,0.085,0.095,0.14,0.135,0.14,0.15,0.175,0.175,0.185,0.2,0.195,0.215,0.23,0.245,0.255,0.27,0.27,0.27,0.27,0.265,0.265,0.26,0.26,0.26,0.265,0.26,0.27,0.255,0.245,0.22,0.22,0.2,0.18,0.165,0.155,0.135,0.13,0.12,0.105,0.09,0.07,0.05,0.03,0.0,-0.03,-0.035,-0.05,-0.06,-0.065,-0.06,-0.075,-0.08,-0.09,-0.1,-0.11,-0.115,-0.13,-0.14,-0.135,-0.135,-0.14,-0.14,-0.13,-0.135
0.0,231.0,-0.26,-0.27,-0.255,-0.265,-0.255,-0.255,-0.24,-0.24,-0.25,-0.255,-0.255,-0.26,-0.26,-0.26,-0.25,-0.25,-0.235,-0.23,-0.25,-0.24,-0.24,-0.245,-0.25,-0.255,-0.255,-0.25,-0.25,-0.245,-0.23,-0.225,-0.23,-0.225,-0.24,-0.245,-0.245,-0.25,-0.24,-0.245,-0.235,-0.235,-0.21,-0.215,-0.205,-0.2,-0.195,-0.19,-0.185,-0.17,-0.175,-0.17,-0.16,-0.145,-0.12,-0.11,-0.11,-0.08,-0.07,-0.04,-0.04,-0.04,-0.04,-0.045,-0.055,-0.06,-0.065,-0.075,-0.085,-0.095,-0.115,-0.14,-0.145,-0.175,-0.19,-0.205,-0.225,-0.235,-0.24,-0.24,-0.235,-0.25,-0.245,-0.255,-0.265,-0.27,-0.27,-0.275,-0.275,-0.27,-0.27,-0.27,-0.27,-0.265,-0.27,-0.275,-0.275,-0.305,-0.28,-0.28,-0.275,-0.275,-0.29,-0.335,-0.395,-0.47,-0.515,-0.49,-0.37,-0.145,0.19,0.6,1.035,1.435,1.715,1.81,1.665,1.29,0.795,0.335,-0.01,-0.19,-0.225,-0.205,-0.15,-0.11,-0.1,-0.11,-0.155,-0.2,-0.27,-0.305,-0.34,-0.335,-0.335,-0.33,-0.335,-0.34,-0.34,-0.36,-0.365,-0.345,-0.36,-0.365,-0.375,-0.4,-0.4,-0.39,-0.39,-0.38,-0.37,-0.36,-0.345,-0.35,-0.365,-0.375,-0.37,-0.38,-0.38,-0.385,-0.39,-0.375,-0.355,-0.355,-0.36,-0.36,-0.365,-0.365,-0.37,-0.37,-0.365,-0.365,-0.375,-0.375,-0.36,-0.36,-0.365,-0.36,-0.36,-0.37,-0.37,-0.365,-0.35,-0.355,-0.35,-0.36,-0.345,-0.34,-0.345,-0.34,-0.32,-0.315,-0.315,-0.325,-0.325,-0.335,-0.32,-0.325,-0.315,-0.3,-0.315,-0.305,-0.305,-0.31,-0.305,-0.29,-0.295,-0.28,-0.255,-0.255,-0.245,-0.245,-0.25,-0.24,-0.245,-0.24,-0.225,-0.235,-0.225,-0.215,-0.23,-0.205,-0.2,-0.18,-0.165,-0.16,-0.155,-0.16,-0.16,-0.17,-0.175,-0.16,-0.17,-0.145,-0.135,-0.12,-0.105,-0.095,-0.09,-0.085,-0.085,-0.085,-0.055,-0.04,-0.025,0.005,0.01,0.03,0.035,0.03,0.03,0.05,0.065,0.075,0.075,0.095,0.1,0.11,0.14,0.155,0.165,0.175,0.165,0.17,0.18,0.185,0.185,0.205,0.195,0.175,0.185,0.2,0.195,0.195,0.19,0.19,0.19,0.17,0.165,0.155,0.135,0.13,0.105,0.105,0.075,0.075,0.055,0.045,0.025,0.0,-0.01,-0.015,-0.035,-0.025,-0.04,-0.035,-0.05,-0.075,-0.09,-0.11,-0.12,-0.15
0.0,231.0,-0.25,-0.25,-0.25,-0.24,-0.245,-0.235,-0.25,-0.255,-0.255,-0.25,-0.255,-0.25,-0.245,-0.25,-0.24,-0.225,-0.235,-0.235,-0.24,-0.245,-0.25,-0.255,-0.26,-0.255,-0.24,-0.235,-0.24,-0.245,-0.24,-0.24,-0.25,-0.25,-0.235,-0.25,-0.245,-0.24,-0.25,-0.245,-0.245,-0.22,-0.22,-0.21,-0.215,-0.215,-0.205,-0.195,-0.195,-0.19,-0.175,-0.165,-0.145,-0.14,-0.135,-0.11,-0.11,-0.085,-0.07,-0.06,-0.04,-0.04,-0.04,-0.045,-0.045,-0.04,-0.055,-0.065,-0.085,-0.095,-0.13,-0.14,-0.16,-0.18,-0.19,-0.205,-0.205,-0.22,-0.22,-0.235,-0.235,-0.23,-0.25,-0.265,-0.26,-0.265,-0.255,-0.255,-0.245,-0.25,-0.26,-0.255,-0.27,-0.27,-0.27,-0.265,-0.27,-0.255,-0.25,-0.245,-0.255,-0.25,-0.29,-0.33,-0.41,-0.475,-0.5,-0.45,-0.29,0.005,0.375,0.825,1.245,1.575,1.73,1.66,1.335,0.855,0.37,-0.025,-0.24,-0.32,-0.28,-0.25,-0.195,-0.18,-0.195,-0.225,-0.275,-0.29,-0.31,-0.325,-0.315,-0.31,-0.3,-0.315,-0.31,-0.325,-0.33,-0.33,-0.345,-0.35,-0.36,-0.37,-0.37,-0.37,-0.365,-0.35,-0.35,-0.34,-0.34,-0.345,-0.355,-0.37,-0.365,-0.37,-0.365,-0.365,-0.355,-0.35,-0.345,-0.335,-0.33,-0.33,-0.33,-0.35,-0.345,-0.35,-0.36,-0.35,-0.35,-0.345,-0.325,-0.315,-0.31,-0.315,-0.315,-0.33,-0.335,-0.33,-0.32,-0.325,-0.315,-0.305,-0.31,-0.285,-0.29,-0.28,-0.27,-0.27,-0.28,-0.28,-0.275,-0.28,-0.265,-0.255,-0.245,-0.24,-0.23,-0.235,-0.23,-0.235,-0.245,-0.255,-0.225,-0.225,-0.205,-0.195,-0.19,-0.18,-0.17,-0.165,-0.17,-0.185,-0.175,-0.17,-0.17,-0.16,-0.155,-0.14,-0.125,-0.12,-0.11,-0.09,-0.095,-0.09,-0.085,-0.08,-0.08,-0.06,-0.045,-0.025,-0.01,0.01,0.02,0.035,0.045,0.035,0.06,0.06,0.08,0.095,0.12,0.135,0.155,0.17,0.17,0.18,0.2,0.205,0.21,0.21,0.215,0.225,0.245,0.26,0.265,0.27,0.26,0.275,0.265,0.245,0.25,0.23,0.23,0.22,0.215,0.21,0.2,0.19,0.185,0.155,0.145,0.125,0.1,0.1,0.085,0.065,0.055,0.045,0.025,0.02,0.0,-0.005,-0.02,-0.04,-0.06,-0.065,-0.08,-0.085,-0.095,-0.09,-0.09,-0.095,-0.095,-0.11,-0.11,-0.125,-0.125,-0.135,-0.14,-0.155
0.0,231.0,-0.245,-0.235,-0.225,-0.23,-0.225,-0.225,-0.22,-0.24,-0.24,-0.25,-0.255,-0.24,-0.23,-0.225,-0.205,-0.2,-0.195,-0.205,-0.215,-0.235,-0.215,-0.235,-0.225,-0.225,-0.215,-0.205,-0.21,-0.205,-0.205,-0.215,-0.22,-0.225,-0.225,-0.21,-0.225,-0.22,-0.22,-0.215,-0.205,-0.185,-0.17,-0.165,-0.17,-0.165,-0.175,-0.19,-0.165,-0.165,-0.145,-0.13,-0.12,-0.115,-0.105,-0.095,-0.1,-0.085,-0.08,-0.05,-0.035,-0.02,-0.005,0.0,0.0,0.01,0.005,-0.01,-0.035,-0.06,-0.075,-0.11,-0.14,-0.145,-0.15,-0.185,-0.185,-0.175,-0.19,-0.2,-0.195,-0.215,-0.24,-0.235,-0.245,-0.265,-0.245,-0.245,-0.22,-0.21,-0.21,-0.2,-0.2,-0.205,-0.21,-0.225,-0.23,-0.235,-0.24,-0.24,-0.235,-0.24,-0.265,-0.285,-0.335,-0.4,-0.42,-0.38,-0.245,0.01,0.36,0.78,1.2,1.55,1.725,1.68,1.37,0.87,0.33,-0.09,-0.32,-0.405,-0.385,-0.325,-0.26,-0.215,-0.22,-0.235,-0.26,-0.28,-0.3,-0.295,-0.285,-0.28,-0.28,-0.285,-0.285,-0.285,-0.29,-0.3,-0.29,-0.295,-0.3,-0.31,-0.315,-0.33,-0.34,-0.325,-0.31,-0.29,-0.28,-0.275,-0.27,-0.285,-0.305,-0.295,-0.305,-0.305,-0.295,-0.29,-0.295,-0.275,-0.26,-0.27,-0.275,-0.275,-0.28,-0.28,-0.285,-0.27,-0.26,-0.265,-0.26,-0.25,-0.26,-0.265,-0.27,-0.265,-0.255,-0.25,-0.245,-0.26,-0.255,-0.245,-0.245,-0.245,-0.245,-0.235,-0.23,-0.22,-0.22,-0.225,-0.215,-0.225,-0.21,-0.21,-0.2,-0.19,-0.195,-0.19,-0.175,-0.17,-0.16,-0.15,-0.165,-0.155,-0.15,-0.15,-0.145,-0.145,-0.15,-0.13,-0.12,-0.1,-0.105,-0.105,-0.09,-0.085,-0.095,-0.08,-0.07,-0.06,-0.06,-0.055,-0.06,-0.055,-0.05,-0.05,-0.04,-0.025,-0.005,0.015,0.035,0.045,0.05,0.05,0.045,0.055,0.07,0.085,0.095,0.115,0.13,0.155,0.18,0.2,0.215,0.225,0.225,0.24,0.24,0.255,0.24,0.26,0.265,0.285,0.31,0.33,0.35,0.365,0.36,0.36,0.34,0.335,0.335,0.35,0.35,0.36,0.38,0.375,0.375,0.37,0.37,0.355,0.335,0.31,0.295,0.275,0.27,0.255,0.245,0.23,0.22,0.21,0.195,0.17,0.15,0.125,0.115,0.08,0.065,0.05,0.04,0.04,0.02,0.015,-0.01,-0.015,-0.03,-0.035,-0.06,-0.075
0.0,231.0,-0.23,-0.22,-0.215,-0.21,-0.205,-0.2,-0.205,-0.21,-0.21,-0.215,-0.235,-0.235,-0.235,-0.215,-0.205,-0.195,-0.195,-0.2,-0.185,-0.195,-0.205,-0.205,-0.205,-0.215,-0.21,-0.2,-0.205,-0.195,-0.195,-0.195,-0.21,-0.215,-0.21,-0.22,-0.21,-0.215,-0.2,-0.2,-0.185,-0.18,-0.16,-0.155,-0.155,-0.145,-0.14,-0.145,-0.13,-0.145,-0.115,-0.1,-0.08,-0.055,-0.03,-0.02,0.005,0.015,0.01,0.0,-0.005,-0.02,-0.045,-0.05,-0.045,-0.04,-0.05,-0.065,-0.075,-0.095,-0.125,-0.145,-0.165,-0.2,-0.205,-0.21,-0.2,-0.19,-0.185,-0.195,-0.19,-0.2,-0.205,-0.215,-0.22,-0.215,-0.215,-0.21,-0.21,-0.205,-0.205,-0.205,-0.205,-0.205,-0.205,-0.21,-0.22,-0.22,-0.22,-0.225,-0.215,-0.24,-0.265,-0.335,-0.4,-0.455,-0.475,-0.39,-0.205,0.08,0.44,0.85,1.235,1.575,1.765,1.765,1.535,1.105,0.625,0.195,-0.06,-0.18,-0.195,-0.155,-0.115,-0.085,-0.095,-0.115,-0.165,-0.225,-0.245,-0.26,-0.27,-0.265,-0.26,-0.255,-0.265,-0.27,-0.275,-0.28,-0.3,-0.31,-0.31,-0.325,-0.33,-0.325,-0.325,-0.32,-0.32,-0.315,-0.31,-0.305,-0.305,-0.315,-0.32,-0.325,-0.325,-0.315,-0.32,-0.31,-0.305,-0.3,-0.295,-0.29,-0.31,-0.305,-0.3,-0.32,-0.32,-0.305,-0.305,-0.305,-0.305,-0.29,-0.285,-0.285,-0.295,-0.3,-0.31,-0.31,-0.29,-0.29,-0.275,-0.28,-0.27,-0.265,-0.265,-0.265,-0.25,-0.255,-0.255,-0.265,-0.255,-0.26,-0.245,-0.25,-0.235,-0.22,-0.215,-0.205,-0.205,-0.2,-0.21,-0.205,-0.195,-0.195,-0.185,-0.18,-0.18,-0.155,-0.155,-0.16,-0.15,-0.14,-0.145,-0.145,-0.14,-0.13,-0.13,-0.12,-0.095,-0.09,-0.08,-0.075,-0.07,-0.07,-0.07,-0.065,-0.07,-0.05,-0.03,-0.03,-0.01,0.01,0.005,0.035,0.045,0.04,0.05,0.06,0.065,0.075,0.095,0.115,0.145,0.165,0.18,0.19,0.2,0.205,0.215,0.23,0.235,0.235,0.26,0.27,0.28,0.29,0.295,0.3,0.3,0.295,0.285,0.285,0.285,0.27,0.275,0.265,0.265,0.275,0.26,0.25,0.24,0.225,0.21,0.185,0.175,0.155,0.135,0.125,0.13,0.115,0.11,0.095,0.08,0.065,0.04,0.025,0.0,-0.005,-0.015,-0.015,-0.02,-0.03,-0.025,-0.04,-0.04,-0.06,-0.06,-0.075,-0.08,-0.085
0.0,231.0,-0.13,-0.13,-0.135,-0.145,-0.15,-0.155,-0.155,-0.15,-0.15,-0.145,-0.145,-0.155,-0.14,-0.145,-0.145,-0.14,-0.145,-0.145,-0.165,-0.175,-0.185,-0.18,-0.155,-0.135,-0.115,-0.11,-0.11,-0.125,-0.13,-0.15,-0.16,-0.155,-0.155,-0.145,-0.145,-0.135,-0.125,-0.12,-0.12,-0.135,-0.125,-0.145,-0.14,-0.15,-0.145,-0.125,-0.115,-0.1,-0.08,-0.08,-0.08,-0.08,-0.07,-0.07,-0.06,-0.035,-0.015,0.02,0.055,0.065,0.075,0.075,0.065,0.03,0.0,-0.015,-0.025,-0.03,-0.04,-0.05,-0.055,-0.065,-0.075,-0.095,-0.11,-0.145,-0.17,-0.175,-0.18,-0.19,-0.18,-0.17,-0.17,-0.165,-0.17,-0.18,-0.17,-0.18,-0.18,-0.185,-0.19,-0.18,-0.17,-0.17,-0.165,-0.16,-0.16,-0.155,-0.16,-0.185,-0.205,-0.265,-0.305,-0.365,-0.405,-0.38,-0.25,0.0,0.37,0.78,1.225,1.575,1.79,1.755,1.44,0.915,0.355,-0.07,-0.34,-0.415,-0.395,-0.335,-0.265,-0.215,-0.22,-0.23,-0.255,-0.26,-0.255,-0.24,-0.215,-0.21,-0.21,-0.21,-0.225,-0.245,-0.26,-0.28,-0.285,-0.275,-0.28,-0.275,-0.275,-0.27,-0.26,-0.245,-0.24,-0.24,-0.24,-0.255,-0.27,-0.285,-0.295,-0.295,-0.29,-0.27,-0.255,-0.25,-0.255,-0.26,-0.245,-0.27,-0.255,-0.255,-0.245,-0.24,-0.235,-0.245,-0.255,-0.25,-0.25,-0.24,-0.24,-0.245,-0.25,-0.255,-0.255,-0.245,-0.24,-0.23,-0.22,-0.22,-0.21,-0.22,-0.2,-0.215,-0.225,-0.22,-0.22,-0.21,-0.2,-0.185,-0.18,-0.18,-0.18,-0.195,-0.205,-0.2,-0.19,-0.17,-0.15,-0.125,-0.125,-0.125,-0.115,-0.13,-0.135,-0.14,-0.13,-0.14,-0.12,-0.105,-0.1,-0.095,-0.09,-0.085,-0.08,-0.075,-0.07,-0.05,-0.035,-0.035,-0.02,-0.02,0.0,0.005,0.01,0.035,0.05,0.065,0.08,0.095,0.105,0.12,0.125,0.135,0.145,0.17,0.195,0.2,0.22,0.245,0.265,0.28,0.285,0.29,0.3,0.31,0.32,0.34,0.37,0.395,0.39,0.395,0.4,0.415,0.41,0.405,0.41,0.41,0.41,0.42,0.42,0.425,0.43,0.405,0.39,0.395,0.385,0.36,0.345,0.33,0.315,0.315,0.3,0.285,0.28,0.255,0.24,0.215,0.215,0.18,0.165,0.15,0.13,0.125,0.105,0.095,0.085,0.065,0.055,0.03,0.02,0.0,-0.015,-0.025,-0.035,-0.025,-0.035,-0.03
0.0,231.0,-0.185,-0.18,-0.19,-0.175,-0.185,-0.195,-0.19,-0.2,-0.2,-0.2,-0.19,-0.195,-0.185,-0.18,-0.18,-0.18,-0.185,-0.195,-0.2,-0.205,-0.195,-0.185,-0.18,-0.18,-0.185,-0.17,-0.18,-0.17,-0.18,-0.175,-0.18,-0.19,-0.18,-0.185,-0.175,-0.17,-0.16,-0.15,-0.15,-0.145,-0.13,-0.13,-0.13,-0.125,-0.115,-0.105,-0.085,-0.095,-0.07,-0.06,-0.045,-0.04,-0.01,0.0,0.005,0.03,0.04,0.04,0.03,0.03,0.025,0.025,0.0,0.0,-0.02,-0.03,-0.065,-0.08,-0.095,-0.095,-0.12,-0.135,-0.135,-0.165,-0.16,-0.16,-0.17,-0.18,-0.175,-0.18,-0.19,-0.21,-0.19,-0.185,-0.185,-0.175,-0.175,-0.175,-0.175,-0.18,-0.19,-0.19,-0.195,-0.185,-0.2,-0.185,-0.18,-0.175,-0.175,-0.185,-0.21,-0.26,-0.325,-0.395,-0.45,-0.42,-0.29,-0.045,0.29,0.7,1.125,1.5,1.745,1.805,1.63,1.23,0.73,0.29,-0.005,-0.145,-0.165,-0.12,-0.085,-0.065,-0.065,-0.1,-0.16,-0.21,-0.245,-0.25,-0.235,-0.235,-0.225,-0.22,-0.225,-0.235,-0.25,-0.27,-0.295,-0.3,-0.3,-0.285,-0.28,-0.28,-0.27,-0.255,-0.28,-0.275,-0.275,-0.285,-0.285,-0.29,-0.29,-0.29,-0.285,-0.275,-0.27,-0.265,-0.275,-0.26,-0.27,-0.28,-0.28,-0.295,-0.28,-0.29,-0.28,-0.275,-0.265,-0.26,-0.255,-0.255,-0.27,-0.27,-0.27,-0.275,-0.265,-0.265,-0.265,-0.265,-0.25,-0.25,-0.24,-0.24,-0.245,-0.24,-0.255,-0.25,-0.24,-0.24,-0.245,-0.23,-0.22,-0.215,-0.22,-0.22,-0.215,-0.22,-0.225,-0.23,-0.21,-0.21,-0.195,-0.195,-0.175,-0.17,-0.17,-0.16,-0.17,-0.175,-0.17,-0.165,-0.165,-0.165,-0.155,-0.15,-0.14,-0.125,-0.125,-0.12,-0.125,-0.12,-0.125,-0.115,-0.115,-0.11,-0.105,-0.085,-0.08,-0.065,-0.06,-0.05,-0.045,-0.04,-0.035,-0.04,-0.03,-0.025,-0.005,0.01,0.035,0.05,0.06,0.07,0.08,0.095,0.095,0.1,0.115,0.14,0.155,0.175,0.18,0.185,0.205,0.215,0.23,0.24,0.245,0.265,0.255,0.255,0.265,0.265,0.28,0.295,0.295,0.285,0.3,0.29,0.295,0.29,0.285,0.275,0.275,0.285,0.28,0.275,0.275,0.26,0.23,0.2,0.185,0.145,0.145,0.145,0.14,0.14,0.135,0.135,0.1,0.095,0.07,0.045,0.03,0.005,0.0,-0.01,-0.01,-0.025
0.0,231.0,-0.19,-0.16,-0.155,-0.17,-0.175,-0.18,-0.2,-0.21,-0.225,-0.215,-0.21,-0.2,-0.19,-0.175,-0.17,-0.165,-0.165,-0.17,-0.175,-0.2,-0.205,-0.205,-0.205,-0.195,-0.19,-0.19,-0.19,-0.19,-0.195,-0.19,-0.175,-0.18,-0.17,-0.16,-0.165,-0.17,-0.165,-0.16,-0.155,-0.18,-0.16,-0.175,-0.175,-0.155,-0.14,-0.13,-0.11,-0.09,-0.085,-0.08,-0.075,-0.08,-0.07,-0.07,-0.055,-0.04,0.005,0.015,0.04,0.035,0.045,0.04,0.01,-0.005,0.0,-0.025,-0.035,-0.055,-0.085,-0.085,-0.11,-0.11,-0.125,-0.135,-0.13,-0.16,-0.15,-0.17,-0.18,-0.185,-0.2,-0.19,-0.19,-0.195,-0.185,-0.18,-0.17,-0.185,-0.19,-0.2,-0.185,-0.195,-0.2,-0.205,-0.205,-0.21,-0.195,-0.185,-0.18,-0.175,-0.195,-0.215,-0.25,-0.3,-0.36,-0.395,-0.36,-0.23,0.04,0.385,0.81,1.195,1.535,1.71,1.655,1.32,0.8,0.255,-0.165,-0.405,-0.485,-0.455,-0.38,-0.32,-0.29,-0.28,-0.305,-0.32,-0.325,-0.31,-0.3,-0.28,-0.28,-0.27,-0.255,-0.27,-0.275,-0.285,-0.29,-0.295,-0.305,-0.3,-0.305,-0.295,-0.29,-0.285,-0.275,-0.285,-0.29,-0.28,-0.3,-0.295,-0.295,-0.31,-0.305,-0.295,-0.28,-0.275,-0.275,-0.275,-0.28,-0.285,-0.275,-0.285,-0.285,-0.3,-0.28,-0.285,-0.285,-0.275,-0.265,-0.265,-0.275,-0.27,-0.275,-0.285,-0.285,-0.27,-0.27,-0.26,-0.26,-0.26,-0.245,-0.245,-0.24,-0.245,-0.235,-0.24,-0.24,-0.235,-0.235,-0.24,-0.22,-0.215,-0.205,-0.205,-0.2,-0.205,-0.22,-0.21,-0.215,-0.215,-0.205,-0.18,-0.175,-0.17,-0.16,-0.17,-0.145,-0.15,-0.14,-0.145,-0.15,-0.155,-0.155,-0.125,-0.115,-0.1,-0.09,-0.09,-0.075,-0.09,-0.075,-0.07,-0.075,-0.08,-0.065,-0.03,-0.01,0.005,0.02,0.03,0.05,0.06,0.08,0.09,0.095,0.11,0.125,0.15,0.16,0.18,0.21,0.22,0.245,0.245,0.26,0.27,0.275,0.275,0.275,0.29,0.31,0.335,0.35,0.35,0.365,0.355,0.36,0.355,0.35,0.34,0.335,0.335,0.345,0.335,0.335,0.33,0.325,0.305,0.28,0.265,0.25,0.235,0.21,0.205,0.2,0.19,0.18,0.16,0.145,0.105,0.09,0.06,0.04,0.035,0.015,0.0,-0.015,-0.02,-0.015,-0.03,-0.045,-0.065,-0.075,-0.085,-0.095,-0.09,-0.105,-0.105
0.0,231.0,-0.25,-0.255,-0.255,-0.26,-0.265,-0.26,-0.265,-0.26,-0.255,-0.245,-0.235,-0.235,-0.24,-0.245,-0.245,-0.25,-0.25,-0.255,-0.255,-0.25,-0.24,-0.23,-0.24,-0.235,-0.235,-0.23,-0.24,-0.24,-0.25,-0.24,-0.245,-0.245,-0.245,-0.235,-0.23,-0.23,-0.215,-0.225,-0.215,-0.215,-0.225,-0.22,-0.215,-0.2,-0.185,-0.18,-0.155,-0.15,-0.135,-0.135,-0.135,-0.13,-0.13,-0.115,-0.095,-0.06,-0.04,-0.025,-0.02,-0.025,-0.03,-0.04,-0.065,-0.08,-0.105,-0.11,-0.125,-0.12,-0.13,-0.135,-0.15,-0.175,-0.205,-0.22,-0.235,-0.24,-0.26,-0.255,-0.265,-0.26,-0.25,-0.255,-0.24,-0.245,-0.25,-0.25,-0.265,-0.26,-0.275,-0.265,-0.27,-0.27,-0.26,-0.25,-0.25,-0.24,-0.24,-0.25,-0.255,-0.29,-0.315,-0.355,-0.415,-0.48,-0.5,-0.44,-0.26,0.005,0.39,0.82,1.215,1.57,1.765,1.745,1.465,1.0,0.515,0.105,-0.125,-0.23,-0.23,-0.195,-0.145,-0.12,-0.145,-0.19,-0.23,-0.275,-0.3,-0.3,-0.295,-0.3,-0.295,-0.295,-0.315,-0.325,-0.355,-0.35,-0.355,-0.35,-0.335,-0.335,-0.33,-0.34,-0.345,-0.33,-0.34,-0.345,-0.36,-0.36,-0.36,-0.355,-0.345,-0.335,-0.32,-0.325,-0.32,-0.335,-0.34,-0.36,-0.37,-0.36,-0.355,-0.345,-0.345,-0.32,-0.315,-0.325,-0.31,-0.32,-0.32,-0.325,-0.32,-0.315,-0.32,-0.31,-0.315,-0.315,-0.3,-0.305,-0.29,-0.29,-0.31,-0.315,-0.31,-0.305,-0.295,-0.29,-0.275,-0.28,-0.275,-0.27,-0.275,-0.27,-0.255,-0.25,-0.26,-0.26,-0.26,-0.25,-0.255,-0.255,-0.24,-0.225,-0.22,-0.21,-0.225,-0.21,-0.225,-0.22,-0.225,-0.21,-0.195,-0.19,-0.18,-0.175,-0.165,-0.16,-0.17,-0.16,-0.165,-0.165,-0.17,-0.145,-0.145,-0.12,-0.105,-0.09,-0.095,-0.1,-0.105,-0.13,-0.12,-0.12,-0.095,-0.08,-0.055,-0.035,-0.02,-0.01,-0.01,0.0,-0.005,0.005,0.02,0.03,0.04,0.06,0.07,0.09,0.105,0.11,0.11,0.125,0.13,0.13,0.125,0.15,0.165,0.17,0.18,0.185,0.195,0.21,0.21,0.22,0.225,0.225,0.225,0.23,0.22,0.215,0.22,0.235,0.245,0.25,0.225,0.22,0.2,0.17,0.165,0.15,0.155,0.145,0.15,0.15,0.135,0.115,0.1,0.06,0.04,0.035,0.03,0.015,0.01,-0.005,-0.015,-0.02,-0.03,-0.04
0.0,231.0,-0.225,-0.21,-0.215,-0.215,-0.23,-0.235,-0.22,-0.23,-0.235,-0.235,-0.22,-0.225,-0.225,-0.215,-0.205,-0.215,-0.225,-0.23,-0.225,-0.235,-0.235,-0.245,-0.235,-0.235,-0.22,-0.225,-0.215,-0.21,-0.225,-0.235,-0.225,-0.23,-0.24,-0.235,-0.235,-0.225,-0.225,-0.225,-0.22,-0.205,-0.215,-0.215,-0.215,-0.21,-0.2,-0.19,-0.18,-0.175,-0.145,-0.15,-0.14,-0.13,-0.125,-0.135,-0.11,-0.1,-0.075,-0.045,-0.03,-0.01,-0.01,-0.015,-0.025,-0.05,-0.055,-0.06,-0.09,-0.1,-0.105,-0.13,-0.135,-0.15,-0.17,-0.18,-0.21,-0.21,-0.22,-0.23,-0.245,-0.255,-0.255,-0.245,-0.245,-0.23,-0.23,-0.235,-0.235,-0.235,-0.27,-0.26,-0.26,-0.265,-0.26,-0.265,-0.255,-0.245,-0.235,-0.24,-0.24,-0.25,-0.275,-0.325,-0.39,-0.445,-0.48,-0.425,-0.26,0.01,0.38,0.785,1.175,1.485,1.61,1.52,1.18,0.695,0.23,-0.105,-0.28,-0.33,-0.31,-0.27,-0.245,-0.22,-0.24,-0.265,-0.305,-0.315,-0.32,-0.31,-0.3,-0.285,-0.285,-0.295,-0.31,-0.335,-0.32,-0.34,-0.35,-0.35,-0.35,-0.35,-0.335,-0.335,-0.33,-0.34,-0.34,-0.34,-0.355,-0.35,-0.36,-0.36,-0.365,-0.345,-0.34,-0.335,-0.335,-0.33,-0.32,-0.33,-0.34,-0.35,-0.355,-0.345,-0.34,-0.34,-0.34,-0.33,-0.325,-0.315,-0.325,-0.325,-0.32,-0.33,-0.32,-0.335,-0.33,-0.335,-0.315,-0.31,-0.3,-0.3,-0.295,-0.3,-0.3,-0.305,-0.305,-0.305,-0.305,-0.295,-0.305,-0.285,-0.27,-0.28,-0.28,-0.26,-0.27,-0.265,-0.275,-0.275,-0.26,-0.255,-0.245,-0.245,-0.23,-0.225,-0.225,-0.23,-0.235,-0.23,-0.24,-0.24,-0.23,-0.215,-0.21,-0.19,-0.185,-0.18,-0.175,-0.165,-0.16,-0.165,-0.175,-0.175,-0.16,-0.155,-0.13,-0.12,-0.1,-0.09,-0.095,-0.085,-0.075,-0.08,-0.065,-0.06,-0.045,-0.03,-0.01,0.01,0.025,0.045,0.05,0.065,0.075,0.09,0.075,0.095,0.105,0.125,0.145,0.155,0.17,0.18,0.195,0.2,0.2,0.205,0.205,0.195,0.21,0.23,0.225,0.24,0.24,0.24,0.23,0.23,0.21,0.205,0.19,0.165,0.165,0.16,0.15,0.155,0.14,0.13,0.115,0.09,0.08,0.045,0.03,0.025,0.005,0.0,-0.01,-0.015,-0.025,-0.04,-0.055,-0.06,-0.07,-0.09,-0.095,-0.11,-0.115,-0.115,-0.115,-0.12
0.0,231.0,-0.245,-0.245,-0.255,-0.26,-0.265,-0.26,-0.265,-0.28,-0.26,-0.265,-0.26,-0.255,-0.245,-0.245,-0.245,-0.245,-0.25,-0.255,-0.255,-0.27,-0.275,-0.265,-0.255,-0.245,-0.23,-0.225,-0.235,-0.235,-0.25,-0.26,-0.265,-0.26,-0.255,-0.25,-0.25,-0.25,-0.225,-0.225,-0.215,-0.205,-0.205,-0.215,-0.21,-0.21,-0.195,-0.185,-0.165,-0.145,-0.15,-0.14,-0.12,-0.095,-0.09,-0.065,-0.055,-0.055,-0.055,-0.075,-0.07,-0.09,-0.095,-0.09,-0.11,-0.115,-0.135,-0.16,-0.185,-0.205,-0.22,-0.23,-0.225,-0.235,-0.22,-0.24,-0.25,-0.255,-0.27,-0.27,-0.275,-0.28,-0.275,-0.285,-0.29,-0.28,-0.265,-0.265,-0.265,-0.26,-0.27,-0.275,-0.28,-0.285,-0.29,-0.285,-0.27,-0.27,-0.255,-0.25,-0.265,-0.31,-0.355,-0.41,-0.485,-0.53,-0.515,-0.405,-0.2,0.115,0.5,0.885,1.26,1.56,1.71,1.665,1.385,0.925,0.415,0.015,-0.225,-0.315,-0.305,-0.27,-0.215,-0.19,-0.195,-0.22,-0.265,-0.3,-0.33,-0.34,-0.33,-0.32,-0.32,-0.325,-0.36,-0.36,-0.365,-0.36,-0.36,-0.375,-0.37,-0.36,-0.37,-0.355,-0.355,-0.34,-0.35,-0.355,-0.365,-0.385,-0.395,-0.4,-0.395,-0.385,-0.375,-0.38,-0.37,-0.38,-0.365,-0.36,-0.37,-0.37,-0.37,-0.36,-0.37,-0.365,-0.36,-0.36,-0.35,-0.34,-0.34,-0.34,-0.34,-0.355,-0.36,-0.37,-0.365,-0.37,-0.365,-0.355,-0.34,-0.345,-0.355,-0.35,-0.35,-0.33,-0.325,-0.32,-0.315,-0.315,-0.305,-0.305,-0.305,-0.3,-0.29,-0.285,-0.28,-0.28,-0.285,-0.285,-0.285,-0.28,-0.27,-0.27,-0.25,-0.255,-0.245,-0.24,-0.245,-0.25,-0.23,-0.225,-0.21,-0.2,-0.205,-0.185,-0.175,-0.17,-0.17,-0.17,-0.175,-0.165,-0.165,-0.165,-0.15,-0.135,-0.12,-0.095,-0.08,-0.075,-0.075,-0.065,-0.065,-0.065,-0.06,-0.055,-0.04,-0.02,-0.005,0.01,0.03,0.05,0.08,0.09,0.105,0.12,0.125,0.125,0.12,0.13,0.145,0.17,0.175,0.17,0.185,0.185,0.185,0.175,0.175,0.19,0.2,0.205,0.215,0.21,0.21,0.2,0.18,0.175,0.155,0.14,0.125,0.11,0.095,0.08,0.075,0.065,0.05,0.04,0.03,0.005,-0.02,-0.045,-0.08,-0.09,-0.105,-0.105,-0.105,-0.11,-0.115,-0.125,-0.14,-0.165,-0.175,-0.18,-0.19,-0.19,-0.19,-0.19,-0.19,-0.21
0.0,231.0,-0.305,-0.275,-0.275,-0.28,-0.28,-0.29,-0.28,-0.295,-0.305,-0.305,-0.31,-0.31,-0.285,-0.285,-0.28,-0.275,-0.285,-0.29,-0.3,-0.305,-0.305,-0.305,-0.305,-0.32,-0.31,-0.29,-0.295,-0.29,-0.285,-0.29,-0.29,-0.295,-0.295,-0.295,-0.305,-0.31,-0.295,-0.285,-0.28,-0.275,-0.275,-0.295,-0.29,-0.305,-0.305,-0.295,-0.275,-0.265,-0.245,-0.235,-0.225,-0.21,-0.205,-0.205,-0.205,-0.2,-0.195,-0.18,-0.15,-0.13,-0.105,-0.095,-0.08,-0.075,-0.09,-0.095,-0.115,-0.135,-0.145,-0.16,-0.165,-0.17,-0.195,-0.2,-0.22,-0.245,-0.26,-0.285,-0.29,-0.305,-0.32,-0.33,-0.31,-0.31,-0.3,-0.3,-0.305,-0.32,-0.32,-0.315,-0.32,-0.315,-0.33,-0.32,-0.335,-0.335,-0.315,-0.305,-0.31,-0.31,-0.325,-0.35,-0.4,-0.47,-0.525,-0.525,-0.415,-0.185,0.16,0.595,1.05,1.42,1.625,1.57,1.25,0.74,0.24,-0.13,-0.345,-0.405,-0.38,-0.315,-0.265,-0.245,-0.255,-0.3,-0.325,-0.36,-0.37,-0.38,-0.38,-0.375,-0.365,-0.375,-0.375,-0.37,-0.385,-0.395,-0.39,-0.415,-0.41,-0.415,-0.415,-0.395,-0.4,-0.39,-0.375,-0.385,-0.385,-0.395,-0.39,-0.395,-0.41,-0.395,-0.395,-0.39,-0.375,-0.375,-0.37,-0.37,-0.375,-0.37,-0.385,-0.38,-0.385,-0.38,-0.38,-0.375,-0.365,-0.355,-0.365,-0.365,-0.36,-0.375,-0.375,-0.385,-0.38,-0.375,-0.365,-0.36,-0.36,-0.35,-0.33,-0.34,-0.34,-0.335,-0.34,-0.345,-0.34,-0.34,-0.345,-0.325,-0.315,-0.3,-0.295,-0.295,-0.295,-0.305,-0.3,-0.305,-0.305,-0.3,-0.3,-0.295,-0.285,-0.27,-0.265,-0.255,-0.25,-0.26,-0.25,-0.25,-0.26,-0.25,-0.235,-0.22,-0.22,-0.205,-0.19,-0.195,-0.195,-0.19,-0.185,-0.19,-0.18,-0.175,-0.175,-0.16,-0.14,-0.13,-0.11,-0.1,-0.085,-0.09,-0.08,-0.07,-0.065,-0.045,-0.03,-0.025,-0.005,0.015,0.03,0.05,0.06,0.075,0.08,0.085,0.085,0.1,0.11,0.125,0.15,0.17,0.19,0.19,0.195,0.2,0.205,0.205,0.205,0.205,0.205,0.21,0.23,0.225,0.23,0.22,0.215,0.205,0.2,0.175,0.165,0.16,0.15,0.15,0.145,0.14,0.13,0.11,0.1,0.08,0.055,0.02,-0.005,0.0,0.0,-0.02,-0.035,-0.04,-0.045,-0.06,-0.07,-0.085,-0.095,-0.11,-0.125,-0.145,-0.135,-0.14
0.0,231.0,-0.26,-0.25,-0.27,-0.28,-0.285,-0.29,-0.28,-0.26,-0.255,-0.245,-0.245,-0.265,-0.27,-0.28,-0.295,-0.285,-0.285,-0.27,-0.255,-0.255,-0.24,-0.245,-0.25,-0.255,-0.255,-0.26,-0.265,-0.275,-0.265,-0.27,-0.27,-0.26,-0.25,-0.25,-0.245,-0.24,-0.235,-0.245,-0.275,-0.265,-0.26,-0.26,-0.25,-0.24,-0.225,-0.215,-0.205,-0.2,-0.215,-0.21,-0.215,-0.2,-0.195,-0.185,-0.16,-0.14,-0.115,-0.095,-0.07,-0.065,-0.055,-0.05,-0.055,-0.055,-0.075,-0.085,-0.095,-0.105,-0.125,-0.145,-0.17,-0.2,-0.22,-0.245,-0.26,-0.265,-0.265,-0.26,-0.245,-0.25,-0.26,-0.27,-0.26,-0.265,-0.27,-0.27,-0.3,-0.305,-0.3,-0.285,-0.27,-0.27,-0.255,-0.265,-0.265,-0.265,-0.26,-0.265,-0.275,-0.29,-0.3,-0.33,-0.36,-0.415,-0.435,-0.42,-0.29,-0.08,0.24,0.615,1.0,1.325,1.555,1.55,1.325,0.88,0.37,-0.075,-0.35,-0.475,-0.48,-0.445,-0.39,-0.36,-0.345,-0.345,-0.355,-0.37,-0.37,-0.36,-0.325,-0.32,-0.31,-0.325,-0.34,-0.36,-0.365,-0.365,-0.37,-0.345,-0.34,-0.345,-0.345,-0.335,-0.345,-0.35,-0.36,-0.365,-0.345,-0.355,-0.35,-0.34,-0.33,-0.325,-0.32,-0.35,-0.365,-0.385,-0.385,-0.345,-0.33,-0.325,-0.325,-0.34,-0.335,-0.35,-0.35,-0.36,-0.35,-0.35,-0.34,-0.335,-0.335,-0.34,-0.32,-0.325,-0.31,-0.32,-0.305,-0.31,-0.305,-0.31,-0.32,-0.32,-0.32,-0.31,-0.29,-0.295,-0.285,-0.295,-0.275,-0.28,-0.285,-0.285,-0.295,-0.295,-0.28,-0.26,-0.245,-0.235,-0.23,-0.225,-0.24,-0.235,-0.22,-0.225,-0.225,-0.205,-0.2,-0.195,-0.185,-0.175,-0.16,-0.155,-0.16,-0.16,-0.165,-0.165,-0.175,-0.16,-0.145,-0.135,-0.12,-0.11,-0.095,-0.09,-0.08,-0.095,-0.085,-0.08,-0.06,-0.05,-0.03,-0.01,0.0,0.035,0.055,0.065,0.08,0.09,0.095,0.105,0.105,0.125,0.14,0.16,0.175,0.21,0.225,0.225,0.235,0.255,0.26,0.255,0.25,0.27,0.28,0.29,0.305,0.315,0.32,0.315,0.32,0.315,0.295,0.29,0.275,0.265,0.26,0.265,0.255,0.245,0.245,0.23,0.21,0.19,0.17,0.14,0.12,0.105,0.095,0.07,0.07,0.06,0.04,0.025,0.005,-0.025,-0.04,-0.05,-0.055,-0.06,-0.09,-0.085,-0.085,-0.08,-0.09,-0.1,-0.11,-0.105
0.0,231.0,-0.32,-0.31,-0.315,-0.305,-0.3,-0.3,-0.285,-0.3,-0.3,-0.285,-0.295,-0.31,-0.31,-0.315,-0.315,-0.3,-0.305,-0.305,-0.3,-0.3,-0.305,-0.305,-0.3,-0.32,-0.305,-0.31,-0.305,-0.31,-0.305,-0.31,-0.28,-0.29,-0.28,-0.285,-0.285,-0.295,-0.29,-0.28,-0.27,-0.27,-0.265,-0.245,-0.225,-0.21,-0.21,-0.205,-0.2,-0.205,-0.21,-0.21,-0.19,-0.165,-0.145,-0.12,-0.095,-0.09,-0.09,-0.105,-0.11,-0.13,-0.15,-0.16,-0.17,-0.17,-0.175,-0.195,-0.19,-0.215,-0.23,-0.255,-0.27,-0.285,-0.295,-0.305,-0.315,-0.31,-0.315,-0.305,-0.305,-0.3,-0.315,-0.315,-0.335,-0.335,-0.33,-0.34,-0.335,-0.335,-0.325,-0.335,-0.32,-0.32,-0.315,-0.32,-0.33,-0.32,-0.335,-0.325,-0.33,-0.34,-0.365,-0.41,-0.47,-0.53,-0.55,-0.495,-0.345,-0.115,0.21,0.575,0.975,1.32,1.565,1.65,1.53,1.185,0.735,0.28,-0.055,-0.245,-0.305,-0.295,-0.25,-0.215,-0.2,-0.215,-0.255,-0.305,-0.345,-0.385,-0.375,-0.37,-0.375,-0.375,-0.38,-0.385,-0.405,-0.395,-0.395,-0.405,-0.405,-0.405,-0.415,-0.41,-0.43,-0.44,-0.44,-0.435,-0.425,-0.415,-0.42,-0.4,-0.395,-0.405,-0.405,-0.415,-0.425,-0.41,-0.415,-0.405,-0.39,-0.39,-0.38,-0.385,-0.39,-0.38,-0.39,-0.395,-0.4,-0.415,-0.405,-0.395,-0.385,-0.385,-0.375,-0.385,-0.38,-0.375,-0.375,-0.375,-0.385,-0.385,-0.39,-0.375,-0.365,-0.365,-0.345,-0.35,-0.345,-0.345,-0.355,-0.365,-0.35,-0.35,-0.35,-0.345,-0.33,-0.315,-0.305,-0.31,-0.305,-0.31,-0.315,-0.31,-0.31,-0.305,-0.3,-0.31,-0.29,-0.27,-0.26,-0.27,-0.27,-0.245,-0.25,-0.255,-0.255,-0.25,-0.24,-0.235,-0.22,-0.22,-0.205,-0.215,-0.21,-0.2,-0.215,-0.2,-0.2,-0.185,-0.185,-0.17,-0.17,-0.145,-0.125,-0.14,-0.115,-0.11,-0.11,-0.095,-0.105,-0.095,-0.1,-0.075,-0.06,-0.03,-0.015,-0.015,0.005,0.005,0.02,0.035,0.025,0.045,0.06,0.08,0.095,0.115,0.125,0.125,0.145,0.135,0.14,0.14,0.14,0.14,0.145,0.155,0.155,0.16,0.17,0.175,0.16,0.185,0.175,0.145,0.155,0.14,0.13,0.12,0.12,0.115,0.11,0.09,0.075,0.06,0.03,0.02,-0.02,-0.02,-0.035,-0.05,-0.05,-0.055,-0.04,-0.06,-0.06,-0.085,-0.11,-0.125
0.0,231.0,-0.28,-0.29,-0.285,-0.28,-0.285,-0.275,-0.275,-0.275,-0.28,-0.275,-0.285,-0.285,-0.275,-0.285,-0.285,-0.295,-0.295,-0.295,-0.28,-0.27,-0.28,-0.26,-0.27,-0.255,-0.265,-0.27,-0.28,-0.28,-0.27,-0.265,-0.28,-0.255,-0.26,-0.25,-0.27,-0.265,-0.265,-0.265,-0.26,-0.26,-0.255,-0.235,-0.22,-0.225,-0.22,-0.225,-0.23,-0.23,-0.235,-0.225,-0.21,-0.205,-0.195,-0.185,-0.165,-0.135,-0.11,-0.07,-0.055,-0.04,-0.04,-0.065,-0.075,-0.095,-0.105,-0.11,-0.125,-0.115,-0.135,-0.16,-0.185,-0.195,-0.21,-0.23,-0.245,-0.26,-0.26,-0.26,-0.255,-0.245,-0.25,-0.245,-0.25,-0.265,-0.255,-0.275,-0.285,-0.28,-0.265,-0.275,-0.26,-0.255,-0.255,-0.25,-0.26,-0.255,-0.255,-0.26,-0.27,-0.27,-0.285,-0.3,-0.33,-0.39,-0.445,-0.445,-0.355,-0.135,0.17,0.575,1.0,1.38,1.625,1.635,1.365,0.86,0.295,-0.155,-0.43,-0.54,-0.52,-0.46,-0.395,-0.345,-0.32,-0.31,-0.33,-0.32,-0.33,-0.34,-0.33,-0.345,-0.34,-0.35,-0.355,-0.36,-0.35,-0.35,-0.35,-0.345,-0.34,-0.34,-0.34,-0.35,-0.345,-0.36,-0.355,-0.36,-0.345,-0.35,-0.335,-0.34,-0.335,-0.335,-0.34,-0.35,-0.355,-0.36,-0.36,-0.35,-0.36,-0.345,-0.34,-0.33,-0.325,-0.33,-0.325,-0.34,-0.335,-0.34,-0.345,-0.335,-0.33,-0.325,-0.32,-0.325,-0.325,-0.315,-0.31,-0.315,-0.32,-0.315,-0.315,-0.32,-0.31,-0.305,-0.295,-0.28,-0.28,-0.29,-0.28,-0.29,-0.305,-0.295,-0.305,-0.29,-0.275,-0.27,-0.25,-0.25,-0.24,-0.24,-0.235,-0.24,-0.245,-0.235,-0.24,-0.23,-0.24,-0.225,-0.215,-0.205,-0.19,-0.18,-0.18,-0.185,-0.175,-0.175,-0.17,-0.165,-0.165,-0.145,-0.145,-0.115,-0.105,-0.105,-0.095,-0.095,-0.09,-0.09,-0.075,-0.06,-0.05,-0.025,0.005,0.02,0.035,0.06,0.06,0.065,0.085,0.09,0.11,0.12,0.12,0.145,0.155,0.175,0.195,0.205,0.21,0.22,0.22,0.23,0.24,0.23,0.24,0.245,0.26,0.265,0.28,0.29,0.29,0.28,0.28,0.275,0.28,0.26,0.255,0.25,0.23,0.24,0.225,0.21,0.185,0.175,0.165,0.14,0.125,0.1,0.09,0.075,0.065,0.07,0.055,0.045,0.02,-0.015,-0.025,-0.045,-0.05,-0.055,-0.075,-0.085,-0.08,-0.07,-0.08,-0.1,-0.115,-0.13
0.0,231.0,-0.22,-0.195,-0.19,-0.2,-0.205,-0.2,-0.21,-0.215,-0.215,-0.215,-0.215,-0.215,-0.205,-0.2,-0.185,-0.19,-0.185,-0.19,-0.195,-0.205,-0.215,-0.225,-0.205,-0.205,-0.205,-0.175,-0.18,-0.185,-0.19,-0.19,-0.2,-0.195,-0.21,-0.215,-0.21,-0.205,-0.19,-0.185,-0.18,-0.165,-0.165,-0.165,-0.155,-0.155,-0.15,-0.145,-0.12,-0.12,-0.12,-0.085,-0.075,-0.07,-0.04,-0.03,-0.01,-0.005,0.0,-0.005,-0.015,-0.025,-0.025,-0.035,-0.04,-0.055,-0.07,-0.085,-0.105,-0.125,-0.145,-0.16,-0.175,-0.19,-0.2,-0.195,-0.195,-0.205,-0.21,-0.21,-0.215,-0.215,-0.22,-0.215,-0.23,-0.225,-0.225,-0.215,-0.215,-0.22,-0.22,-0.215,-0.225,-0.235,-0.23,-0.23,-0.23,-0.22,-0.215,-0.22,-0.235,-0.25,-0.285,-0.36,-0.42,-0.475,-0.48,-0.38,-0.18,0.135,0.495,0.9,1.3,1.6,1.8,1.765,1.53,1.095,0.61,0.19,-0.07,-0.17,-0.18,-0.135,-0.085,-0.06,-0.07,-0.115,-0.175,-0.235,-0.285,-0.29,-0.295,-0.285,-0.285,-0.27,-0.29,-0.295,-0.305,-0.32,-0.32,-0.33,-0.34,-0.33,-0.335,-0.33,-0.315,-0.32,-0.325,-0.33,-0.335,-0.345,-0.35,-0.35,-0.355,-0.345,-0.34,-0.335,-0.335,-0.33,-0.31,-0.31,-0.31,-0.31,-0.31,-0.315,-0.32,-0.315,-0.32,-0.315,-0.31,-0.3,-0.315,-0.315,-0.305,-0.315,-0.305,-0.305,-0.305,-0.3,-0.3,-0.28,-0.275,-0.265,-0.265,-0.265,-0.27,-0.27,-0.275,-0.285,-0.295,-0.29,-0.285,-0.27,-0.255,-0.24,-0.24,-0.24,-0.245,-0.245,-0.245,-0.245,-0.245,-0.235,-0.235,-0.225,-0.23,-0.215,-0.21,-0.22,-0.2,-0.2,-0.205,-0.195,-0.185,-0.195,-0.18,-0.17,-0.17,-0.15,-0.145,-0.145,-0.135,-0.145,-0.145,-0.15,-0.14,-0.12,-0.115,-0.1,-0.09,-0.065,-0.065,-0.055,-0.055,-0.065,-0.06,-0.06,-0.06,-0.04,-0.015,0.0,0.015,0.025,0.04,0.04,0.055,0.06,0.065,0.08,0.09,0.11,0.12,0.14,0.165,0.17,0.185,0.19,0.205,0.205,0.19,0.2,0.195,0.205,0.21,0.225,0.245,0.255,0.255,0.26,0.27,0.27,0.265,0.26,0.25,0.23,0.215,0.215,0.205,0.215,0.22,0.21,0.21,0.195,0.165,0.155,0.135,0.095,0.085,0.08,0.07,0.075,0.065,0.045,0.035,-0.005,-0.01,-0.03,-0.045,-0.055,-0.06,-0.055
0.0,231.0,-0.17,-0.165,-0.165,-0.155,-0.145,-0.16,-0.155,-0.16,-0.155,-0.17,-0.17,-0.165,-0.165,-0.17,-0.155,-0.145,-0.14,-0.15,-0.145,-0.145,-0.16,-0.165,-0.155,-0.17,-0.165,-0.15,-0.155,-0.145,-0.145,-0.15,-0.14,-0.145,-0.155,-0.155,-0.17,-0.165,-0.17,-0.17,-0.155,-0.145,-0.14,-0.14,-0.15,-0.155,-0.15,-0.14,-0.15,-0.13,-0.11,-0.11,-0.095,-0.07,-0.065,-0.06,-0.045,-0.025,-0.02,0.005,0.01,0.025,0.035,0.025,0.03,0.02,0.02,0.005,-0.005,-0.025,-0.045,-0.065,-0.09,-0.11,-0.13,-0.14,-0.15,-0.155,-0.17,-0.16,-0.17,-0.17,-0.17,-0.18,-0.19,-0.19,-0.18,-0.18,-0.185,-0.18,-0.175,-0.165,-0.18,-0.175,-0.185,-0.185,-0.185,-0.195,-0.185,-0.185,-0.175,-0.19,-0.2,-0.255,-0.305,-0.38,-0.425,-0.41,-0.315,-0.095,0.21,0.585,0.995,1.355,1.635,1.745,1.66,1.32,0.825,0.345,-0.005,-0.21,-0.265,-0.245,-0.2,-0.175,-0.15,-0.16,-0.18,-0.21,-0.24,-0.25,-0.255,-0.24,-0.235,-0.235,-0.24,-0.235,-0.26,-0.27,-0.27,-0.275,-0.275,-0.28,-0.285,-0.285,-0.28,-0.275,-0.27,-0.265,-0.265,-0.275,-0.26,-0.27,-0.275,-0.28,-0.29,-0.295,-0.28,-0.28,-0.29,-0.285,-0.275,-0.285,-0.275,-0.28,-0.27,-0.285,-0.285,-0.285,-0.27,-0.275,-0.265,-0.265,-0.26,-0.255,-0.25,-0.27,-0.26,-0.265,-0.275,-0.27,-0.27,-0.26,-0.265,-0.25,-0.235,-0.235,-0.235,-0.24,-0.245,-0.245,-0.245,-0.245,-0.25,-0.235,-0.225,-0.215,-0.205,-0.2,-0.205,-0.2,-0.21,-0.21,-0.205,-0.21,-0.2,-0.195,-0.175,-0.175,-0.17,-0.165,-0.165,-0.15,-0.155,-0.155,-0.165,-0.15,-0.15,-0.14,-0.12,-0.115,-0.105,-0.105,-0.1,-0.095,-0.09,-0.1,-0.095,-0.1,-0.09,-0.07,-0.055,-0.035,-0.03,-0.035,-0.02,-0.005,0.0,-0.005,0.005,0.02,0.04,0.055,0.075,0.095,0.115,0.115,0.14,0.14,0.15,0.15,0.15,0.16,0.185,0.2,0.225,0.23,0.24,0.24,0.28,0.27,0.28,0.275,0.275,0.28,0.295,0.295,0.31,0.33,0.33,0.33,0.325,0.32,0.295,0.285,0.285,0.275,0.26,0.255,0.26,0.255,0.25,0.24,0.225,0.205,0.19,0.17,0.15,0.15,0.135,0.12,0.115,0.105,0.09,0.075,0.055,0.04,0.015,0.005,-0.01,-0.02
0.0,231.0,-0.2,-0.2,-0.19,-0.19,-0.185,-0.17,-0.175,-0.18,-0.185,-0.185,-0.19,-0.185,-0.19,-0.195,-0.19,-0.185,-0.18,-0.16,-0.17,-0.165,-0.17,-0.175,-0.185,-0.185,-0.18,-0.195,-0.18,-0.17,-0.17,-0.165,-0.16,-0.17,-0.175,-0.175,-0.185,-0.195,-0.19,-0.19,-0.18,-0.165,-0.155,-0.14,-0.145,-0.135,-0.13,-0.125,-0.12,-0.12,-0.1,-0.085,-0.08,-0.07,-0.05,-0.03,-0.005,0.015,0.015,0.02,0.015,0.015,0.0,-0.01,-0.01,-0.02,-0.03,-0.04,-0.06,-0.07,-0.08,-0.1,-0.12,-0.135,-0.155,-0.17,-0.17,-0.175,-0.18,-0.185,-0.195,-0.2,-0.205,-0.215,-0.22,-0.225,-0.22,-0.205,-0.205,-0.195,-0.18,-0.18,-0.19,-0.19,-0.205,-0.21,-0.2,-0.195,-0.195,-0.205,-0.2,-0.22,-0.235,-0.29,-0.35,-0.41,-0.445,-0.4,-0.245,0.03,0.41,0.835,1.275,1.64,1.855,1.835,1.535,1.05,0.51,0.085,-0.17,-0.27,-0.25,-0.2,-0.155,-0.12,-0.115,-0.15,-0.2,-0.225,-0.245,-0.25,-0.25,-0.265,-0.27,-0.275,-0.28,-0.27,-0.275,-0.28,-0.27,-0.285,-0.3,-0.305,-0.305,-0.315,-0.295,-0.295,-0.28,-0.28,-0.28,-0.27,-0.275,-0.26,-0.285,-0.28,-0.285,-0.29,-0.285,-0.3,-0.285,-0.265,-0.255,-0.235,-0.25,-0.26,-0.265,-0.29,-0.29,-0.3,-0.295,-0.295,-0.265,-0.245,-0.235,-0.225,-0.23,-0.23,-0.245,-0.255,-0.26,-0.255,-0.255,-0.225,-0.225,-0.215,-0.205,-0.2,-0.205,-0.19,-0.195,-0.195,-0.185,-0.19,-0.19,-0.195,-0.185,-0.185,-0.17,-0.165,-0.16,-0.17,-0.17,-0.16,-0.145,-0.15,-0.14,-0.13,-0.12,-0.12,-0.105,-0.1,-0.1,-0.1,-0.085,-0.08,-0.08,-0.07,-0.065,-0.055,-0.035,-0.025,-0.015,0.0,-0.005,0.015,0.01,0.0,-0.005,0.02,0.025,0.045,0.055,0.06,0.07,0.105,0.125,0.13,0.15,0.145,0.155,0.155,0.175,0.19,0.22,0.245,0.26,0.29,0.295,0.29,0.3,0.3,0.3,0.295,0.31,0.31,0.315,0.325,0.335,0.35,0.355,0.36,0.355,0.345,0.34,0.32,0.315,0.3,0.295,0.29,0.305,0.3,0.29,0.28,0.27,0.26,0.24,0.22,0.21,0.19,0.165,0.145,0.125,0.115,0.095,0.095,0.08,0.075,0.055,0.05,0.04,0.02,0.01,-0.01,-0.005,-0.03,-0.035,-0.045,-0.055,-0.07,-0.07,-0.075
0.0,231.0,-0.16,-0.16,-0.17,-0.17,-0.165,-0.165,-0.165,-0.165,-0.145,-0.135,-0.15,-0.145,-0.15,-0.16,-0.16,-0.17,-0.17,-0.165,-0.16,-0.17,-0.155,-0.15,-0.16,-0.16,-0.155,-0.16,-0.165,-0.165,-0.16,-0.16,-0.15,-0.15,-0.145,-0.155,-0.14,-0.135,-0.145,-0.15,-0.15,-0.16,-0.155,-0.135,-0.14,-0.13,-0.11,-0.105,-0.1,-0.095,-0.085,-0.075,-0.07,-0.075,-0.075,-0.08,-0.065,-0.025,-0.01,0.02,0.04,0.055,0.065,0.055,0.045,0.03,0.015,0.005,0.0,-0.005,-0.015,-0.025,-0.06,-0.08,-0.095,-0.115,-0.14,-0.155,-0.16,-0.165,-0.155,-0.15,-0.155,-0.145,-0.155,-0.145,-0.155,-0.17,-0.18,-0.18,-0.175,-0.18,-0.16,-0.165,-0.16,-0.15,-0.15,-0.155,-0.165,-0.18,-0.175,-0.205,-0.235,-0.275,-0.345,-0.405,-0.41,-0.335,-0.165,0.105,0.475,0.885,1.275,1.595,1.77,1.75,1.485,1.04,0.55,0.165,-0.09,-0.19,-0.19,-0.16,-0.13,-0.09,-0.1,-0.135,-0.17,-0.19,-0.2,-0.215,-0.205,-0.195,-0.2,-0.215,-0.225,-0.245,-0.255,-0.255,-0.26,-0.255,-0.25,-0.245,-0.26,-0.25,-0.255,-0.255,-0.26,-0.265,-0.26,-0.26,-0.26,-0.25,-0.25,-0.235,-0.235,-0.235,-0.24,-0.24,-0.24,-0.245,-0.255,-0.245,-0.24,-0.235,-0.23,-0.23,-0.225,-0.215,-0.225,-0.23,-0.23,-0.245,-0.24,-0.24,-0.235,-0.225,-0.215,-0.21,-0.225,-0.22,-0.24,-0.23,-0.225,-0.225,-0.225,-0.225,-0.22,-0.215,-0.21,-0.185,-0.19,-0.185,-0.205,-0.205,-0.2,-0.2,-0.195,-0.2,-0.185,-0.18,-0.165,-0.16,-0.17,-0.145,-0.16,-0.165,-0.16,-0.165,-0.155,-0.15,-0.135,-0.13,-0.11,-0.09,-0.095,-0.09,-0.085,-0.1,-0.095,-0.1,-0.095,-0.085,-0.06,-0.095,-0.075,-0.05,-0.045,-0.035,-0.035,-0.035,-0.035,-0.04,-0.035,-0.01,-0.005,0.025,0.03,0.05,0.065,0.07,0.09,0.095,0.115,0.115,0.13,0.14,0.155,0.185,0.21,0.225,0.235,0.255,0.24,0.25,0.255,0.255,0.265,0.275,0.29,0.315,0.325,0.345,0.35,0.355,0.355,0.355,0.355,0.35,0.355,0.35,0.355,0.345,0.345,0.36,0.35,0.34,0.32,0.305,0.29,0.27,0.265,0.255,0.245,0.23,0.23,0.22,0.195,0.18,0.15,0.13,0.13,0.105,0.095,0.08,0.075,0.065,0.065,0.06,0.055,0.035
0.0,231.0,-0.125,-0.12,-0.125,-0.12,-0.12,-0.13,-0.14,-0.14,-0.135,-0.14,-0.135,-0.12,-0.105,-0.11,-0.1,-0.095,-0.095,-0.11,-0.12,-0.135,-0.125,-0.125,-0.115,-0.115,-0.1,-0.105,-0.09,-0.09,-0.1,-0.095,-0.11,-0.11,-0.12,-0.125,-0.11,-0.105,-0.085,-0.085,-0.065,-0.065,-0.075,-0.06,-0.07,-0.075,-0.065,-0.055,-0.045,-0.045,-0.03,-0.02,-0.01,-0.005,0.0,0.025,0.035,0.06,0.085,0.11,0.115,0.11,0.105,0.085,0.07,0.045,0.025,0.005,-0.005,-0.02,-0.03,-0.045,-0.055,-0.06,-0.065,-0.095,-0.085,-0.085,-0.09,-0.095,-0.115,-0.11,-0.115,-0.115,-0.125,-0.115,-0.11,-0.105,-0.125,-0.115,-0.13,-0.145,-0.14,-0.14,-0.125,-0.125,-0.125,-0.12,-0.105,-0.11,-0.12,-0.135,-0.17,-0.21,-0.27,-0.34,-0.365,-0.325,-0.175,0.075,0.44,0.825,1.235,1.57,1.775,1.76,1.49,1.02,0.51,0.075,-0.17,-0.265,-0.255,-0.195,-0.11,-0.08,-0.07,-0.1,-0.145,-0.19,-0.205,-0.205,-0.2,-0.175,-0.175,-0.165,-0.18,-0.18,-0.205,-0.215,-0.23,-0.235,-0.235,-0.23,-0.225,-0.21,-0.195,-0.205,-0.205,-0.22,-0.21,-0.22,-0.23,-0.23,-0.205,-0.205,-0.19,-0.175,-0.185,-0.18,-0.175,-0.185,-0.19,-0.19,-0.195,-0.19,-0.195,-0.2,-0.2,-0.205,-0.19,-0.185,-0.18,-0.165,-0.17,-0.175,-0.18,-0.185,-0.19,-0.195,-0.18,-0.17,-0.15,-0.14,-0.14,-0.125,-0.14,-0.125,-0.13,-0.14,-0.145,-0.14,-0.135,-0.135,-0.125,-0.13,-0.125,-0.125,-0.125,-0.115,-0.105,-0.09,-0.08,-0.065,-0.06,-0.06,-0.05,-0.055,-0.055,-0.045,-0.045,-0.025,-0.035,-0.03,-0.025,-0.03,-0.03,-0.015,-0.01,0.02,0.03,0.045,0.03,0.035,0.03,0.03,0.05,0.055,0.085,0.1,0.125,0.135,0.14,0.145,0.145,0.145,0.15,0.175,0.195,0.225,0.25,0.265,0.29,0.3,0.3,0.295,0.3,0.29,0.295,0.31,0.34,0.365,0.39,0.425,0.44,0.435,0.435,0.425,0.415,0.405,0.41,0.41,0.41,0.41,0.43,0.42,0.41,0.41,0.405,0.38,0.365,0.35,0.335,0.315,0.32,0.32,0.31,0.305,0.3,0.285,0.25,0.235,0.215,0.18,0.175,0.14,0.13,0.125,0.105,0.085,0.09,0.085,0.08,0.065,0.03,0.025,0.01,0.005,0.015,0.005,0.005,0.015
0.0,231.0,-0.15,-0.16,-0.16,-0.185,-0.195,-0.175,-0.18,-0.175,-0.175,-0.16,-0.16,-0.16,-0.165,-0.17,-0.165,-0.18,-0.2,-0.18,-0.175,-0.185,-0.165,-0.155,-0.155,-0.135,-0.145,-0.145,-0.155,-0.16,-0.17,-0.165,-0.16,-0.16,-0.155,-0.15,-0.145,-0.15,-0.15,-0.14,-0.14,-0.145,-0.15,-0.135,-0.145,-0.11,-0.105,-0.085,-0.07,-0.08,-0.07,-0.065,-0.06,-0.065,-0.055,-0.05,-0.01,0.01,0.03,0.04,0.045,0.05,0.025,0.025,-0.01,-0.015,-0.03,-0.04,-0.055,-0.07,-0.075,-0.09,-0.09,-0.11,-0.125,-0.155,-0.17,-0.165,-0.19,-0.2,-0.2,-0.19,-0.2,-0.19,-0.185,-0.175,-0.19,-0.185,-0.205,-0.215,-0.21,-0.2,-0.205,-0.205,-0.185,-0.19,-0.18,-0.185,-0.19,-0.195,-0.195,-0.215,-0.24,-0.28,-0.34,-0.39,-0.435,-0.4,-0.27,-0.015,0.335,0.735,1.155,1.48,1.685,1.66,1.39,0.935,0.46,0.085,-0.125,-0.205,-0.21,-0.17,-0.125,-0.11,-0.135,-0.185,-0.22,-0.24,-0.24,-0.24,-0.245,-0.23,-0.24,-0.245,-0.265,-0.28,-0.28,-0.285,-0.29,-0.29,-0.285,-0.28,-0.28,-0.275,-0.275,-0.275,-0.275,-0.29,-0.29,-0.29,-0.29,-0.28,-0.285,-0.27,-0.285,-0.28,-0.28,-0.285,-0.285,-0.28,-0.28,-0.275,-0.285,-0.27,-0.265,-0.265,-0.255,-0.26,-0.255,-0.26,-0.265,-0.27,-0.265,-0.28,-0.265,-0.25,-0.245,-0.245,-0.24,-0.235,-0.23,-0.235,-0.245,-0.23,-0.23,-0.24,-0.25,-0.24,-0.225,-0.21,-0.2,-0.195,-0.195,-0.19,-0.185,-0.185,-0.185,-0.195,-0.19,-0.165,-0.17,-0.16,-0.145,-0.14,-0.14,-0.125,-0.14,-0.145,-0.15,-0.145,-0.15,-0.145,-0.125,-0.105,-0.09,-0.08,-0.08,-0.065,-0.065,-0.07,-0.08,-0.075,-0.07,-0.045,-0.03,-0.005,0.0,0.01,0.015,0.03,0.03,0.035,0.045,0.055,0.075,0.09,0.1,0.125,0.155,0.17,0.175,0.19,0.195,0.21,0.21,0.215,0.225,0.245,0.27,0.275,0.3,0.315,0.305,0.315,0.315,0.32,0.325,0.325,0.325,0.345,0.35,0.36,0.37,0.365,0.36,0.35,0.335,0.325,0.325,0.305,0.295,0.295,0.295,0.29,0.29,0.28,0.26,0.255,0.23,0.215,0.195,0.17,0.175,0.155,0.15,0.14,0.14,0.125,0.095,0.085,0.075,0.06,0.05,0.03,0.02,0.015,0.015,0.015,0.025,0.015
0.0,231.0,-0.125,-0.125,-0.12,-0.12,-0.13,-0.13,-0.15,-0.155,-0.15,-0.145,-0.13,-0.125,-0.12,-0.13,-0.13,-0.145,-0.145,-0.155,-0.165,-0.155,-0.15,-0.125,-0.12,-0.11,-0.12,-0.125,-0.145,-0.145,-0.155,-0.165,-0.15,-0.16,-0.15,-0.14,-0.115,-0.095,-0.09,-0.08,-0.09,-0.1,-0.11,-0.125,-0.125,-0.125,-0.115,-0.09,-0.085,-0.065,-0.055,-0.06,-0.055,-0.085,-0.065,-0.05,-0.025,0.02,0.05,0.075,0.09,0.09,0.075,0.07,0.055,0.045,0.035,0.015,0.005,-0.03,-0.045,-0.06,-0.07,-0.075,-0.095,-0.105,-0.115,-0.135,-0.14,-0.155,-0.155,-0.165,-0.175,-0.185,-0.185,-0.185,-0.17,-0.16,-0.155,-0.165,-0.17,-0.17,-0.165,-0.15,-0.145,-0.14,-0.14,-0.125,-0.135,-0.15,-0.165,-0.18,-0.21,-0.255,-0.325,-0.39,-0.41,-0.345,-0.155,0.16,0.53,0.95,1.35,1.655,1.79,1.73,1.38,0.875,0.345,-0.065,-0.28,-0.325,-0.29,-0.225,-0.16,-0.14,-0.135,-0.17,-0.21,-0.245,-0.26,-0.25,-0.25,-0.21,-0.225,-0.21,-0.23,-0.245,-0.245,-0.265,-0.265,-0.265,-0.27,-0.275,-0.27,-0.26,-0.26,-0.26,-0.255,-0.27,-0.27,-0.275,-0.275,-0.28,-0.27,-0.26,-0.26,-0.245,-0.25,-0.25,-0.255,-0.25,-0.26,-0.265,-0.275,-0.28,-0.275,-0.28,-0.255,-0.255,-0.245,-0.245,-0.23,-0.24,-0.23,-0.245,-0.255,-0.245,-0.25,-0.25,-0.245,-0.235,-0.225,-0.22,-0.22,-0.215,-0.215,-0.23,-0.235,-0.215,-0.22,-0.21,-0.205,-0.195,-0.19,-0.195,-0.19,-0.19,-0.19,-0.18,-0.175,-0.18,-0.175,-0.165,-0.155,-0.15,-0.14,-0.145,-0.155,-0.14,-0.14,-0.15,-0.15,-0.135,-0.125,-0.115,-0.095,-0.095,-0.08,-0.075,-0.07,-0.07,-0.075,-0.08,-0.065,-0.07,-0.05,-0.05,-0.03,-0.02,-0.015,-0.005,0.015,0.015,0.02,0.025,0.04,0.045,0.055,0.09,0.105,0.125,0.145,0.165,0.185,0.185,0.195,0.205,0.225,0.235,0.25,0.27,0.275,0.305,0.32,0.335,0.345,0.355,0.355,0.355,0.365,0.375,0.38,0.395,0.405,0.425,0.42,0.41,0.395,0.385,0.38,0.385,0.39,0.385,0.38,0.365,0.36,0.34,0.325,0.31,0.3,0.29,0.255,0.24,0.22,0.2,0.18,0.18,0.175,0.165,0.15,0.13,0.11,0.085,0.07,0.06,0.03,0.03,0.01,0.015,0.0,-0.005
0.0,231.0,-0.225,-0.22,-0.205,-0.215,-0.205,-0.21,-0.2,-0.2,-0.205,-0.22,-0.22,-0.22,-0.215,-0.22,-0.21,-0.195,-0.2,-0.19,-0.185,-0.195,-0.195,-0.2,-0.215,-0.21,-0.21,-0.195,-0.195,-0.18,-0.18,-0.175,-0.16,-0.175,-0.19,-0.19,-0.185,-0.18,-0.18,-0.165,-0.17,-0.165,-0.135,-0.14,-0.135,-0.135,-0.12,-0.12,-0.12,-0.115,-0.09,-0.085,-0.05,-0.03,-0.005,0.005,0.025,0.015,0.005,0.005,-0.015,-0.02,-0.025,-0.025,-0.035,-0.045,-0.05,-0.075,-0.09,-0.11,-0.125,-0.16,-0.185,-0.19,-0.205,-0.195,-0.19,-0.185,-0.185,-0.19,-0.185,-0.19,-0.195,-0.21,-0.215,-0.215,-0.215,-0.21,-0.195,-0.19,-0.19,-0.19,-0.195,-0.2,-0.205,-0.21,-0.205,-0.21,-0.205,-0.21,-0.21,-0.225,-0.25,-0.305,-0.365,-0.435,-0.48,-0.415,-0.27,0.015,0.385,0.795,1.225,1.56,1.79,1.8,1.58,1.135,0.625,0.195,-0.08,-0.195,-0.225,-0.165,-0.115,-0.08,-0.08,-0.125,-0.17,-0.21,-0.245,-0.255,-0.255,-0.25,-0.26,-0.26,-0.275,-0.275,-0.285,-0.295,-0.285,-0.3,-0.295,-0.305,-0.3,-0.305,-0.315,-0.315,-0.305,-0.305,-0.295,-0.3,-0.29,-0.295,-0.315,-0.325,-0.34,-0.33,-0.32,-0.315,-0.31,-0.3,-0.3,-0.295,-0.29,-0.29,-0.29,-0.285,-0.305,-0.3,-0.295,-0.3,-0.28,-0.275,-0.275,-0.275,-0.27,-0.28,-0.29,-0.285,-0.305,-0.29,-0.275,-0.28,-0.265,-0.255,-0.26,-0.255,-0.245,-0.25,-0.245,-0.25,-0.255,-0.24,-0.24,-0.225,-0.225,-0.2,-0.195,-0.2,-0.19,-0.2,-0.195,-0.205,-0.2,-0.205,-0.19,-0.18,-0.165,-0.16,-0.145,-0.145,-0.145,-0.15,-0.135,-0.135,-0.135,-0.135,-0.13,-0.12,-0.12,-0.105,-0.085,-0.085,-0.07,-0.07,-0.065,-0.075,-0.06,-0.05,-0.04,-0.015,-0.015,-0.01,0.02,0.03,0.05,0.07,0.06,0.065,0.095,0.105,0.12,0.13,0.15,0.17,0.19,0.2,0.205,0.215,0.215,0.225,0.225,0.235,0.24,0.255,0.28,0.28,0.3,0.3,0.31,0.315,0.3,0.295,0.29,0.285,0.295,0.31,0.3,0.305,0.32,0.31,0.29,0.28,0.28,0.265,0.245,0.23,0.225,0.22,0.21,0.205,0.205,0.185,0.17,0.13,0.115,0.095,0.08,0.07,0.06,0.05,0.035,0.025,0.015,0.01,0.0,-0.015,-0.025,-0.045,-0.055,-0.06
0.0,231.0,-0.24,-0.23,-0.22,-0.2,-0.19,-0.19,-0.2,-0.22,-0.245,-0.24,-0.24,-0.23,-0.23,-0.225,-0.215,-0.22,-0.22,-0.22,-0.215,-0.215,-0.21,-0.21,-0.205,-0.225,-0.225,-0.21,-0.21,-0.19,-0.185,-0.195,-0.19,-0.22,-0.23,-0.25,-0.245,-0.255,-0.235,-0.22,-0.2,-0.19,-0.185,-0.165,-0.185,-0.18,-0.165,-0.17,-0.16,-0.15,-0.15,-0.13,-0.12,-0.105,-0.095,-0.08,-0.055,-0.04,-0.04,-0.035,-0.04,-0.06,-0.05,-0.055,-0.05,-0.04,-0.065,-0.08,-0.11,-0.14,-0.16,-0.175,-0.19,-0.225,-0.245,-0.24,-0.24,-0.235,-0.235,-0.22,-0.235,-0.24,-0.235,-0.255,-0.245,-0.25,-0.25,-0.25,-0.265,-0.265,-0.255,-0.255,-0.26,-0.255,-0.255,-0.26,-0.26,-0.26,-0.255,-0.24,-0.23,-0.24,-0.26,-0.3,-0.36,-0.435,-0.485,-0.445,-0.3,-0.035,0.325,0.745,1.15,1.485,1.66,1.645,1.36,0.885,0.33,-0.115,-0.38,-0.475,-0.45,-0.395,-0.32,-0.28,-0.275,-0.295,-0.325,-0.345,-0.37,-0.39,-0.38,-0.36,-0.34,-0.315,-0.305,-0.29,-0.29,-0.305,-0.325,-0.34,-0.35,-0.37,-0.375,-0.36,-0.365,-0.345,-0.34,-0.33,-0.33,-0.335,-0.345,-0.34,-0.345,-0.34,-0.34,-0.335,-0.335,-0.32,-0.33,-0.32,-0.325,-0.335,-0.335,-0.34,-0.35,-0.345,-0.35,-0.355,-0.36,-0.355,-0.34,-0.32,-0.325,-0.305,-0.305,-0.3,-0.315,-0.32,-0.33,-0.325,-0.335,-0.34,-0.325,-0.32,-0.325,-0.325,-0.305,-0.295,-0.285,-0.28,-0.27,-0.28,-0.275,-0.285,-0.285,-0.275,-0.265,-0.25,-0.245,-0.24,-0.25,-0.265,-0.275,-0.26,-0.26,-0.23,-0.21,-0.185,-0.195,-0.185,-0.205,-0.21,-0.21,-0.215,-0.21,-0.19,-0.17,-0.17,-0.15,-0.145,-0.145,-0.135,-0.155,-0.15,-0.155,-0.16,-0.145,-0.13,-0.12,-0.095,-0.085,-0.08,-0.075,-0.07,-0.06,-0.055,-0.06,-0.055,-0.05,-0.035,-0.015,-0.015,0.01,0.03,0.055,0.065,0.075,0.09,0.095,0.12,0.13,0.14,0.16,0.185,0.21,0.225,0.24,0.265,0.26,0.27,0.275,0.275,0.28,0.295,0.305,0.33,0.335,0.345,0.355,0.365,0.365,0.365,0.365,0.355,0.34,0.34,0.345,0.345,0.335,0.33,0.32,0.305,0.295,0.29,0.265,0.235,0.24,0.22,0.215,0.205,0.185,0.175,0.155,0.135,0.115,0.095,0.07,0.05,0.035,0.025
0.0,231.0,-0.325,-0.315,-0.305,-0.315,-0.305,-0.285,-0.3,-0.29,-0.29,-0.295,-0.3,-0.305,-0.305,-0.305,-0.295,-0.295,-0.29,-0.28,-0.285,-0.285,-0.285,-0.295,-0.29,-0.3,-0.305,-0.3,-0.3,-0.295,-0.28,-0.295,-0.29,-0.28,-0.28,-0.285,-0.285,-0.295,-0.28,-0.29,-0.28,-0.275,-0.275,-0.265,-0.25,-0.265,-0.255,-0.26,-0.26,-0.25,-0.235,-0.22,-0.205,-0.195,-0.185,-0.185,-0.17,-0.135,-0.13,-0.105,-0.095,-0.09,-0.095,-0.1,-0.105,-0.11,-0.115,-0.13,-0.135,-0.15,-0.165,-0.19,-0.21,-0.245,-0.25,-0.275,-0.27,-0.285,-0.275,-0.27,-0.29,-0.29,-0.29,-0.31,-0.31,-0.31,-0.315,-0.32,-0.31,-0.305,-0.305,-0.29,-0.295,-0.3,-0.3,-0.305,-0.31,-0.31,-0.315,-0.305,-0.315,-0.33,-0.345,-0.395,-0.485,-0.535,-0.55,-0.45,-0.24,0.065,0.47,0.9,1.295,1.59,1.7,1.61,1.255,0.775,0.31,-0.035,-0.22,-0.275,-0.255,-0.21,-0.17,-0.155,-0.175,-0.2,-0.255,-0.3,-0.33,-0.355,-0.355,-0.36,-0.37,-0.37,-0.355,-0.37,-0.38,-0.38,-0.375,-0.375,-0.395,-0.4,-0.395,-0.41,-0.42,-0.43,-0.415,-0.42,-0.42,-0.41,-0.395,-0.38,-0.395,-0.405,-0.405,-0.41,-0.41,-0.41,-0.4,-0.395,-0.395,-0.395,-0.385,-0.38,-0.38,-0.385,-0.395,-0.4,-0.395,-0.39,-0.39,-0.39,-0.375,-0.38,-0.39,-0.375,-0.365,-0.37,-0.37,-0.39,-0.38,-0.38,-0.37,-0.375,-0.365,-0.355,-0.36,-0.335,-0.345,-0.36,-0.36,-0.355,-0.345,-0.35,-0.34,-0.32,-0.315,-0.31,-0.31,-0.295,-0.295,-0.295,-0.29,-0.29,-0.295,-0.295,-0.29,-0.285,-0.28,-0.265,-0.25,-0.245,-0.245,-0.255,-0.26,-0.24,-0.245,-0.235,-0.225,-0.22,-0.215,-0.2,-0.195,-0.19,-0.18,-0.19,-0.2,-0.185,-0.175,-0.165,-0.16,-0.14,-0.125,-0.115,-0.095,-0.09,-0.075,-0.07,-0.065,-0.075,-0.065,-0.07,-0.045,-0.015,0.015,0.045,0.055,0.065,0.085,0.085,0.095,0.1,0.115,0.12,0.13,0.145,0.155,0.165,0.17,0.18,0.175,0.175,0.17,0.175,0.17,0.165,0.165,0.17,0.165,0.165,0.155,0.15,0.135,0.12,0.105,0.085,0.08,0.07,0.06,0.06,0.04,0.045,0.025,0.01,-0.02,-0.035,-0.045,-0.085,-0.08,-0.1,-0.09,-0.11,-0.115,-0.105,-0.12,-0.14,-0.145,-0.165,-0.17,-0.185
0.0,231.0,-0.24,-0.255,-0.25,-0.255,-0.265,-0.255,-0.25,-0.25,-0.24,-0.265,-0.245,-0.255,-0.235,-0.235,-0.245,-0.24,-0.245,-0.25,-0.245,-0.245,-0.24,-0.23,-0.225,-0.225,-0.225,-0.235,-0.235,-0.245,-0.24,-0.25,-0.25,-0.245,-0.245,-0.24,-0.225,-0.21,-0.225,-0.24,-0.24,-0.24,-0.245,-0.235,-0.235,-0.23,-0.22,-0.2,-0.18,-0.175,-0.17,-0.155,-0.16,-0.155,-0.155,-0.145,-0.13,-0.125,-0.1,-0.07,-0.035,-0.045,-0.035,-0.035,-0.05,-0.065,-0.09,-0.095,-0.095,-0.115,-0.13,-0.135,-0.14,-0.165,-0.18,-0.205,-0.225,-0.235,-0.25,-0.245,-0.25,-0.245,-0.245,-0.255,-0.25,-0.25,-0.26,-0.245,-0.255,-0.26,-0.27,-0.265,-0.275,-0.265,-0.255,-0.255,-0.245,-0.23,-0.245,-0.245,-0.265,-0.255,-0.275,-0.325,-0.38,-0.445,-0.48,-0.47,-0.35,-0.13,0.19,0.575,0.975,1.335,1.57,1.63,1.43,1.02,0.515,0.08,-0.225,-0.335,-0.35,-0.315,-0.265,-0.23,-0.23,-0.25,-0.28,-0.31,-0.325,-0.33,-0.31,-0.31,-0.305,-0.31,-0.315,-0.335,-0.355,-0.36,-0.37,-0.36,-0.36,-0.35,-0.345,-0.345,-0.34,-0.345,-0.365,-0.355,-0.365,-0.375,-0.38,-0.37,-0.36,-0.36,-0.355,-0.35,-0.345,-0.355,-0.365,-0.375,-0.37,-0.365,-0.355,-0.365,-0.355,-0.345,-0.325,-0.33,-0.34,-0.325,-0.335,-0.345,-0.35,-0.36,-0.355,-0.36,-0.35,-0.34,-0.32,-0.325,-0.32,-0.325,-0.325,-0.335,-0.34,-0.335,-0.335,-0.335,-0.315,-0.32,-0.29,-0.29,-0.29,-0.3,-0.285,-0.29,-0.3,-0.305,-0.305,-0.31,-0.295,-0.29,-0.265,-0.275,-0.27,-0.265,-0.265,-0.265,-0.265,-0.265,-0.245,-0.24,-0.235,-0.23,-0.21,-0.205,-0.2,-0.19,-0.19,-0.195,-0.19,-0.195,-0.185,-0.185,-0.18,-0.155,-0.15,-0.145,-0.145,-0.125,-0.12,-0.115,-0.1,-0.1,-0.08,-0.075,-0.065,-0.05,-0.03,-0.005,0.005,0.01,0.02,0.035,0.045,0.06,0.07,0.095,0.11,0.125,0.16,0.16,0.185,0.18,0.195,0.21,0.215,0.22,0.23,0.255,0.265,0.28,0.29,0.295,0.305,0.315,0.31,0.295,0.3,0.29,0.305,0.3,0.305,0.315,0.32,0.325,0.315,0.3,0.285,0.27,0.26,0.23,0.23,0.23,0.22,0.205,0.215,0.18,0.165,0.15,0.13,0.105,0.085,0.07,0.05,0.04,0.01,0.005,0.005,-0.005
0.0,231.0,-0.21,-0.22,-0.24,-0.24,-0.24,-0.24,-0.245,-0.245,-0.23,-0.22,-0.215,-0.21,-0.215,-0.23,-0.235,-0.245,-0.24,-0.235,-0.235,-0.23,-0.205,-0.195,-0.19,-0.2,-0.215,-0.235,-0.255,-0.255,-0.255,-0.24,-0.22,-0.205,-0.2,-0.2,-0.2,-0.19,-0.2,-0.195,-0.205,-0.22,-0.205,-0.205,-0.205,-0.195,-0.175,-0.155,-0.155,-0.165,-0.155,-0.16,-0.145,-0.135,-0.125,-0.11,-0.09,-0.065,-0.055,-0.015,-0.005,0.0,-0.005,-0.015,-0.025,-0.055,-0.065,-0.085,-0.095,-0.1,-0.11,-0.11,-0.125,-0.14,-0.175,-0.195,-0.21,-0.23,-0.24,-0.24,-0.235,-0.225,-0.235,-0.22,-0.22,-0.23,-0.225,-0.235,-0.235,-0.25,-0.265,-0.26,-0.265,-0.25,-0.25,-0.225,-0.235,-0.24,-0.245,-0.26,-0.255,-0.275,-0.285,-0.32,-0.385,-0.45,-0.475,-0.43,-0.26,0.01,0.37,0.79,1.205,1.545,1.755,1.755,1.49,1.01,0.47,0.025,-0.245,-0.365,-0.345,-0.305,-0.245,-0.22,-0.235,-0.255,-0.3,-0.325,-0.32,-0.31,-0.29,-0.285,-0.29,-0.315,-0.335,-0.34,-0.35,-0.36,-0.345,-0.34,-0.34,-0.325,-0.335,-0.345,-0.345,-0.35,-0.35,-0.36,-0.375,-0.365,-0.36,-0.34,-0.33,-0.325,-0.32,-0.315,-0.32,-0.32,-0.325,-0.335,-0.35,-0.345,-0.35,-0.34,-0.34,-0.32,-0.315,-0.295,-0.29,-0.295,-0.31,-0.325,-0.35,-0.36,-0.355,-0.35,-0.315,-0.295,-0.27,-0.275,-0.265,-0.285,-0.29,-0.3,-0.315,-0.3,-0.29,-0.27,-0.25,-0.25,-0.24,-0.245,-0.245,-0.26,-0.27,-0.285,-0.28,-0.27,-0.25,-0.245,-0.23,-0.21,-0.215,-0.215,-0.215,-0.22,-0.215,-0.225,-0.21,-0.2,-0.19,-0.185,-0.18,-0.17,-0.155,-0.165,-0.155,-0.16,-0.155,-0.14,-0.13,-0.11,-0.115,-0.1,-0.085,-0.075,-0.055,-0.065,-0.07,-0.065,-0.065,-0.07,-0.06,-0.06,-0.05,-0.025,-0.01,0.015,0.03,0.045,0.055,0.065,0.065,0.06,0.09,0.1,0.11,0.135,0.145,0.165,0.185,0.19,0.21,0.22,0.24,0.245,0.25,0.26,0.27,0.26,0.28,0.285,0.3,0.31,0.315,0.325,0.315,0.29,0.275,0.27,0.275,0.285,0.29,0.29,0.29,0.285,0.275,0.265,0.25,0.23,0.21,0.19,0.17,0.16,0.16,0.16,0.15,0.13,0.11,0.09,0.06,0.04,0.03,0.01,-0.02,-0.03,-0.05,-0.06,-0.065,-0.055
0.0,231.0,-0.23,-0.235,-0.24,-0.23,-0.225,-0.225,-0.215,-0.225,-0.215,-0.205,-0.22,-0.215,-0.235,-0.235,-0.24,-0.235,-0.24,-0.235,-0.225,-0.215,-0.23,-0.225,-0.23,-0.225,-0.23,-0.24,-0.23,-0.23,-0.23,-0.23,-0.21,-0.205,-0.22,-0.205,-0.205,-0.2,-0.21,-0.22,-0.22,-0.21,-0.2,-0.19,-0.175,-0.185,-0.175,-0.165,-0.16,-0.16,-0.165,-0.16,-0.14,-0.14,-0.125,-0.11,-0.07,-0.045,-0.025,-0.005,-0.015,-0.005,-0.015,-0.04,-0.045,-0.06,-0.065,-0.08,-0.08,-0.095,-0.11,-0.12,-0.145,-0.155,-0.185,-0.205,-0.215,-0.22,-0.225,-0.225,-0.21,-0.215,-0.21,-0.22,-0.22,-0.24,-0.245,-0.235,-0.24,-0.235,-0.24,-0.245,-0.23,-0.23,-0.23,-0.225,-0.225,-0.23,-0.23,-0.25,-0.24,-0.265,-0.285,-0.32,-0.36,-0.42,-0.47,-0.45,-0.35,-0.11,0.225,0.63,1.05,1.43,1.69,1.73,1.52,1.1,0.58,0.14,-0.13,-0.255,-0.265,-0.23,-0.17,-0.145,-0.15,-0.175,-0.215,-0.26,-0.275,-0.29,-0.3,-0.3,-0.325,-0.32,-0.325,-0.335,-0.33,-0.33,-0.325,-0.325,-0.32,-0.32,-0.325,-0.33,-0.335,-0.345,-0.35,-0.335,-0.345,-0.33,-0.325,-0.32,-0.315,-0.315,-0.32,-0.325,-0.34,-0.335,-0.34,-0.34,-0.32,-0.315,-0.315,-0.31,-0.31,-0.32,-0.32,-0.31,-0.325,-0.325,-0.325,-0.33,-0.315,-0.305,-0.305,-0.295,-0.3,-0.3,-0.305,-0.3,-0.325,-0.315,-0.31,-0.3,-0.29,-0.28,-0.27,-0.265,-0.265,-0.26,-0.26,-0.265,-0.26,-0.26,-0.25,-0.255,-0.25,-0.225,-0.22,-0.215,-0.2,-0.205,-0.205,-0.195,-0.22,-0.215,-0.2,-0.19,-0.19,-0.18,-0.18,-0.165,-0.16,-0.155,-0.145,-0.145,-0.14,-0.14,-0.135,-0.13,-0.12,-0.1,-0.095,-0.065,-0.07,-0.055,-0.05,-0.045,-0.035,-0.035,-0.005,0.0,0.02,0.04,0.06,0.09,0.085,0.115,0.12,0.13,0.13,0.145,0.16,0.17,0.19,0.2,0.215,0.23,0.24,0.245,0.24,0.245,0.25,0.25,0.255,0.26,0.265,0.285,0.28,0.28,0.275,0.27,0.255,0.25,0.225,0.22,0.22,0.2,0.21,0.205,0.195,0.195,0.175,0.155,0.145,0.115,0.095,0.075,0.07,0.065,0.06,0.05,0.04,0.03,0.005,0.0,-0.015,-0.02,-0.035,-0.055,-0.06,-0.08,-0.08,-0.07,-0.065,-0.07,-0.065,-0.075,-0.09,-0.1
